-2.817619405686855316e-02
-2.812912128865718842e-02
-2.798693440854549408e-02
-2.768593467772006989e-02
-2.711221389472484589e-02
-2.610212564468383789e-02
-2.446142025291919708e-02
-2.200362272560596466e-02
-1.859415695071220398e-02
-1.418539881706237793e-02
-8.837016299366950989e-03
-2.719245851039886475e-03
3.903064876794815063e-03
1.070052385330200195e-02
1.731601729989051819e-02
2.340386994183063507e-02
2.866516821086406708e-02
3.287407755851745605e-02
3.589292615652084351e-02
3.767468035221099854e-02
3.825458139181137085e-02
3.773517161607742310e-02
3.626871481537818909e-02
3.404056280851364136e-02
3.125512599945068359e-02
2.812320739030838013e-02
2.484882995486259460e-02
2.161504887044429779e-02
1.856973581016063690e-02
1.581348665058612823e-02
1.339351199567317963e-02
1.130557619035243988e-02
9.502882137894630432e-03
7.908700034022331238e-03
6.430379115045070648e-03
4.973757080733776093e-03
3.455881029367446899e-03
1.814820803701877594e-03
1.562945544719696045e-05
-1.948736608028411865e-03
-4.060327075421810150e-03
-6.282101385295391083e-03
-8.565909229218959808e-03
-1.085959933698177338e-02
-1.311122719198465347e-02
-1.527128554880619049e-02
-1.729691401124000549e-02
-1.915826275944709778e-02
-2.084127999842166901e-02
-2.234458737075328827e-02
-2.367236837744712830e-02
-2.482707425951957703e-02
-2.580782026052474976e-02
-2.661433815956115723e-02
-2.724980562925338745e-02
-2.772067673504352570e-02
-2.803627774119377136e-02
-2.820873260498046875e-02
-2.825280465185642242e-02
-2.818456478416919708e-02
-2.801777608692646027e-02
-2.776246517896652222e-02
-2.742867544293403625e-02
-2.702850103378295898e-02
-2.657135203480720520e-02
-2.605620957911014557e-02
-2.546096034348011017e-02
-2.472473867237567902e-02
-2.373062260448932648e-02
-2.230457961559295654e-02
-2.023791894316673279e-02
-1.732788421213626862e-02
-1.342313736677169800e-02
-8.461793884634971619e-03
-2.495618537068367004e-03
4.303597845137119293e-03
1.165784522891044617e-02
1.921433769166469574e-02
2.658851444721221924e-02
3.341068327426910400e-02
3.936595842242240906e-02
4.422036930918693542e-02
4.783305525779724121e-02
5.015585571527481079e-02
5.122227594256401062e-02
5.113104358315467834e-02
5.002957209944725037e-02
4.809732735157012939e-02
4.552809149026870728e-02
4.251642152667045593e-02
3.924921527504920959e-02
3.589677810668945312e-02
3.260282799601554871e-02
2.947555668652057648e-02
2.658124640583992004e-02
2.394251525402069092e-02
2.154148370027542114e-02
1.932818628847599030e-02
1.723334193229675293e-02
1.518244855105876923e-02
1.310721971094608307e-02
1.095135323703289032e-02
8.673937991261482239e-03
6.253959611058235168e-03
3.692767582833766937e-03
1.012762077152729034e-03
-1.746471039950847626e-03
-4.534471780061721802e-03
-7.297898642718791962e-03
-9.987911209464073181e-03
-1.256540976464748383e-02
-1.500449143350124359e-02
-1.729173399507999420e-02
-1.942053809762001038e-02
-2.138762734830379486e-02
-2.319363877177238464e-02
-2.484190464019775391e-02
-2.633507922291755676e-02
-2.767397463321685791e-02
-2.885888516902923584e-02
-2.988978847861289978e-02
-3.076455555856227875e-02
-3.147842735052108765e-02
-3.202623873949050903e-02
-3.240520507097244263e-02
-3.261663019657135010e-02
-3.266812115907669067e-02
-3.257543593645095825e-02
-3.235920891165733337e-02
-3.203749656677246094e-02
-3.162060305476188660e-02
-3.110907971858978271e-02
-3.048909828066825867e-02
-2.972042188048362732e-02
-2.872208319604396820e-02
-2.736649662256240845e-02
-2.548598125576972961e-02
-2.289457060396671295e-02
-1.942588202655315399e-02
-1.497539505362510681e-02
-9.535823017358779907e-03
-3.217054530978202820e-03
3.758599981665611267e-03
1.108263153582811356e-02
1.839642040431499481e-02
2.533230930566787720e-02
3.155560046434402466e-02
3.679924830794334412e-02
4.088483750820159912e-02
4.372742027044296265e-02
4.532728344202041626e-02
4.575520753860473633e-02
4.513587057590484619e-02
4.363179951906204224e-02
4.143016412854194641e-02
3.873088955879211426e-02
3.573084995150566101e-02
3.260631114244461060e-02
2.950222045183181763e-02
2.652972750365734100e-02
2.376588620245456696e-02
2.125184983015060425e-02
1.899099722504615784e-02
1.695048250257968903e-02
1.506897620856761932e-02
1.326908357441425323e-02
1.146983541548252106e-02
9.597953408956527710e-03
7.598502561450004578e-03
5.442346446216106415e-03
3.126917406916618347e-03
6.709778681397438049e-04
-1.891748979687690735e-03
-4.515709355473518372e-03
-7.145316340029239655e-03
-9.721167385578155518e-03
-1.219095662236213684e-02
-1.451888307929039001e-02
-1.668733172118663788e-02
-1.869112998247146606e-02
-2.053012698888778687e-02
-2.220411598682403564e-02
-2.371101453900337219e-02
-2.504738233983516693e-02
-2.620926871895790100e-02
-2.719410136342048645e-02
-2.800494059920310974e-02
-2.865151129662990570e-02
-2.914461866021156311e-02
-2.949181571602821350e-02
-2.969904616475105286e-02
-2.977365255355834961e-02
-2.972630038857460022e-02
-2.957125194370746613e-02
-2.932440303266048431e-02
-2.900040708482265472e-02
-2.860946394503116608e-02
-2.815243043005466461e-02
-2.761075459420681000e-02
-2.692999690771102905e-02
-2.600439824163913727e-02
-2.467443421483039856e-02
-2.274485491216182709e-02
-2.002070844173431396e-02
-1.635069400072097778e-02
-1.166641898453235626e-02
-6.008632481098175049e-03
4.652300849556922913e-04
7.493665441870689392e-03
1.474193297326564789e-02
2.184354513883590698e-02
2.844215556979179382e-02
3.422807529568672180e-02
3.896573185920715332e-02
4.250685125589370728e-02
4.479003325104713440e-02
4.583405330777168274e-02
4.572779685258865356e-02
4.461609572172164917e-02
4.268538951873779297e-02
4.015140235424041748e-02
3.724405914545059204e-02
3.418706357479095459e-02
3.117615915834903717e-02
2.836100943386554718e-02
2.583453804254531860e-02
2.363169565796852112e-02
2.173658087849617004e-02
2.009318396449089050e-02
1.861568167805671692e-02
1.720277965068817139e-02
1.575714536011219025e-02
1.419747807085514069e-02
1.246156729757785797e-02
1.051103323698043823e-02
8.336174301803112030e-03
5.955329164862632751e-03
3.409563563764095306e-03
7.542455568909645081e-04
-1.949912402778863907e-03
-4.644392989575862885e-03
-7.277856115251779556e-03
-9.809084236621856689e-03
-1.221017725765705109e-02
-1.446684356778860092e-02
-1.657179929316043854e-02
-1.851629838347434998e-02
-2.028755284845829010e-02
-2.187240496277809143e-02
-2.326186746358871460e-02
-2.445245161652565002e-02
-2.544523216784000397e-02
-2.624541148543357849e-02
-2.686361782252788544e-02
-2.731878496706485748e-02
-2.763804793357849121e-02
-2.785155177116394043e-02
-2.798674069344997406e-02
-2.806045860052108765e-02
-2.806403487920761108e-02
-2.794670313596725464e-02
-2.760479785501956940e-02
-2.688133902847766876e-02
-2.558240294456481934e-02
-2.351070754230022430e-02
-2.050776965916156769e-02
-1.649335958063602448e-02
-1.149233244359493256e-02
-5.644218996167182922e-03
8.055036887526512146e-04
7.532586343586444855e-03
1.417522598057985306e-02
2.038038149476051331e-02
2.584375068545341492e-02
3.033369034528732300e-02
3.369956463575363159e-02
3.587214648723602295e-02
3.685966879129409790e-02
3.673837333917617798e-02
3.563802689313888550e-02
3.372661024332046509e-02
3.119706176221370697e-02
2.825438417494297028e-02
2.509967982769012451e-02
2.191298641264438629e-02
1.884026452898979187e-02
1.598552986979484558e-02
1.340781338512897491e-02
1.112385466694831848e-02
9.113561362028121948e-03
7.327483966946601868e-03
5.698658525943756104e-03
4.154642112553119659e-03
2.625680528581142426e-03
1.050301827490329742e-03
-6.209444254636764526e-04
-2.421180717647075653e-03
-4.360915161669254303e-03
-6.424367893487215042e-03
-8.571871556341648102e-03
-1.074770372360944748e-02
-1.289120875298976898e-02
-1.494777109473943710e-02
-1.687577925622463226e-02
-1.864744164049625397e-02
-2.024582028388977051e-02
-2.166276797652244568e-02
-2.289814502000808716e-02
-2.395796403288841248e-02
-2.485130913555622101e-02
-2.558701299130916595e-02
-2.617216669023036957e-02
-2.661402150988578796e-02
-2.692256681621074677e-02
-2.711112238466739655e-02
-2.719449996948242188e-02
-2.718396857380867004e-02
-2.707778848707675934e-02
-2.684548124670982361e-02
-2.640966884791851044e-02
-2.563860639929771423e-02
-2.435785904526710510e-02
-2.237837389111518860e-02
-1.953296363353729248e-02
-1.571311615407466888e-02
-1.090018451213836670e-02
-5.184885114431381226e-03
1.230999827384948730e-03
8.054267615079879761e-03
1.493712142109870911e-02
2.152019366621971130e-02
2.747323922812938690e-02
3.252774477005004883e-02
3.649618476629257202e-02
3.927631676197052002e-02
4.084386676549911499e-02
4.124259576201438904e-02
4.057674482464790344e-02
3.900063782930374146e-02
3.670284152030944824e-02
3.388803079724311829e-02
3.075839765369892120e-02
2.749781683087348938e-02
2.426297403872013092e-02
2.117891795933246613e-02
1.833414286375045776e-02
1.577623374760150909e-02
1.351070962846279144e-02
1.150382496416568756e-02
9.691451676189899445e-03
7.993969134986400604e-03
6.331808865070343018e-03
4.636139608919620514e-03
2.854541875422000885e-03
9.555304422974586487e-04
-1.068679150193929672e-03
-3.205184824764728546e-03
-5.425724666565656662e-03
-7.689637597650289536e-03
-9.947967715561389923e-03
-1.215083710849285126e-02
-1.425431761890649796e-02
-1.622335053980350494e-02
-1.803063042461872101e-02
-1.965509355068206787e-02
-2.108243294060230255e-02
-2.230641804635524750e-02
-2.332979813218116760e-02
-2.416484244167804718e-02
-2.483297325670719147e-02
-2.536134608089923859e-02
-2.577743306756019592e-02
-2.610575594007968903e-02
-2.636633440852165222e-02
-2.656879089772701263e-02
-2.669651247560977936e-02
-2.668529562652111053e-02
-2.641073614358901978e-02
-2.569393254816532135e-02
-2.432616800069808960e-02
-2.210886590182781219e-02
-1.889947615563869476e-02
-1.465008966624736786e-02
-9.428538382053375244e-03
-3.417121246457099915e-03
3.108391538262367249e-03
9.810739196836948395e-03
1.632766239345073700e-02
2.231224626302719116e-02
2.747327648103237152e-02
3.160244226455688477e-02
3.458026796579360962e-02
3.636981546878814697e-02
3.700851276516914368e-02
3.659706562757492065e-02
3.528340905904769897e-02
3.324571251869201660e-02
3.067803382873535156e-02
2.777642011642456055e-02
2.472383715212345123e-02
2.167791128158569336e-02
1.876342296600341797e-02
1.606840454041957855e-02
1.364234089851379395e-02
1.149586401879787445e-02
9.603812359273433685e-03
7.913164794445037842e-03
6.355348974466323853e-03
4.857912659645080566e-03
3.351453691720962524e-03
1.775957178324460983e-03
8.900556713342666626e-05
-1.729627605527639389e-03
-3.679336747154593468e-03
-5.741212982684373856e-03
-7.880297489464282990e-03
-1.004948560148477554e-02
-1.219364441931247711e-02
-1.425359770655632019e-02
-1.617278158664703369e-02
-1.790648326277732849e-02
-1.942810975015163422e-02
-2.072924375534057617e-02
-2.181654423475265503e-02
-2.270739898085594177e-02
-2.342553623020648956e-02
-2.399830892682075500e-02
-2.445339225232601166e-02
-2.481390908360481262e-02
-2.509484253823757172e-02
-2.530094981193542480e-02
-2.542176842689514160e-02
-2.542133629322052002e-02
-2.522600814700126648e-02
-2.471630088984966278e-02
-2.372997999191284180e-02
-2.208217233419418335e-02
-1.959992758929729462e-02
-1.616223715245723724e-02
-1.173578202724456787e-02
-6.395816802978515625e-03
-3.254618495702743530e-04
6.202954798936843872e-03
1.285812165588140488e-02
1.928798481822013855e-02
2.516032010316848755e-02
3.019724786281585693e-02
3.419683873653411865e-02
3.704032301902770996e-02
3.868964314460754395e-02
3.918062895536422729e-02
3.861241787672042847e-02
3.713310509920120239e-02
3.492530435323715210e-02
3.219302743673324585e-02
2.914719097316265106e-02
2.599016577005386353e-02
2.289886213839054108e-02
2.000759355723857880e-02
1.739927753806114197e-02
1.510745845735073090e-02
1.312245428562164307e-02
1.139877736568450928e-02
9.864260442554950714e-03
8.429549634456634521e-03
6.999101489782333374e-03
5.486004054546356201e-03
3.826793283224105835e-03
1.989503856748342514e-03
-2.636760473251342773e-05
-2.194419037550687790e-03
-4.468387458473443985e-03
-6.791329011321067810e-03
-9.103630669414997101e-03
-1.134807802736759186e-02
-1.347511354833841324e-02
-1.544765196740627289e-02
-1.724221929907798767e-02
-1.884850114583969116e-02
-2.026711404323577881e-02
-2.150356397032737732e-02
-2.256345748901367188e-02
-2.345193922519683838e-02
-2.417434379458427429e-02
-2.473778091371059418e-02
-2.515278011560440063e-02
-2.543250657618045807e-02
-2.559098601341247559e-02
-2.563719823956489563e-02
-2.555660344660282135e-02
-2.528540417551994324e-02
-2.469541504979133606e-02
-2.360109426081180573e-02
-2.178887464106082916e-02
-1.906225830316543579e-02
-1.529144495725631714e-02
-1.045413687825202942e-02
-4.655124619603157043e-03
1.880649477243423462e-03
8.836465887725353241e-03
1.584374904632568359e-02
2.252503670752048492e-02
2.853533998131752014e-02
3.359670192003250122e-02
3.751834481954574585e-02
4.020102322101593018e-02
4.163028299808502197e-02
4.186455905437469482e-02
4.102292656898498535e-02
3.927048295736312866e-02
3.679871186614036560e-02
3.380710259079933167e-02
3.049151971936225891e-02
2.703476697206497192e-02
2.359469793736934662e-02
2.029290050268173218e-02
1.720902882516384125e-02
1.438017003238201141e-02
1.180353201925754547e-02
9.443745017051696777e-03
7.243564352393150330e-03
5.135303363204002380e-03
3.051686100661754608e-03
9.349333122372627258e-04
-1.257133670151233673e-03
-3.548686392605304718e-03
-5.945134907960891724e-03
-8.432549424469470978e-03
-1.097975857555866241e-02
-1.354444213211536407e-02
-1.608105376362800598e-02
-1.854623109102249146e-02
-2.089910954236984253e-02
-2.310118637979030609e-02
-2.512024715542793274e-02
-2.693498879671096802e-02
-2.853702381253242493e-02
-2.992958948016166687e-02
-3.112229704856872559e-02
-3.212588280439376831e-02
-3.295079991221427917e-02
-3.360770642757415771e-02
-3.410787507891654968e-02
-3.446358442306518555e-02
-3.468652814626693726e-02
-3.478343412280082703e-02
-3.475356474518775940e-02
-3.459149226546287537e-02
-3.429161012172698975e-02
-3.385132923722267151e-02
-3.327250853180885315e-02
-3.256164863705635071e-02
-3.173019364476203918e-02
-3.079550713300704956e-02
-2.977815642952919006e-02
-2.869004383683204651e-02
-2.751348540186882019e-02
-2.617796137928962708e-02
-2.454647049307823181e-02
-2.242261916399002075e-02
-1.958090811967849731e-02
-1.581383496522903442e-02
-1.098282635211944580e-02
-5.057947710156440735e-03
1.861361786723136902e-03
9.546525776386260986e-03
1.766363903880119324e-02
2.581803128123283386e-02
3.360658138990402222e-02
4.066430032253265381e-02
4.669825732707977295e-02
5.150781944394111633e-02
5.499172955751419067e-02
5.714141577482223511e-02
5.802471935749053955e-02
5.776711925864219666e-02
5.653257295489311218e-02
5.450514703989028931e-02
5.187430977821350098e-02
4.882445186376571655e-02
4.552714899182319641e-02
4.213405773043632507e-02
3.876891732215881348e-02
3.552120923995971680e-02
3.244540095329284668e-02
2.956393174827098846e-02
2.686979435384273529e-02
2.432946860790252686e-02
2.188878133893013000e-02
1.948210783302783966e-02
1.704338751733303070e-02
1.451693102717399597e-02
1.186555810272693634e-02
9.073709137737751007e-03
6.145583465695381165e-03
3.101100213825702667e-03
-2.698553726077079773e-05
-3.194080665707588196e-03
-6.345257163047790527e-03
-9.418455883860588074e-03
-1.235009450465440750e-02
-1.508453115820884705e-02
-1.758329942822456360e-02
-1.982758753001689911e-02
-2.181540802121162415e-02
-2.355897426605224609e-02
-2.508200705051422119e-02
-2.641453966498374939e-02
-2.758705057203769684e-02
-2.862456254661083221e-02
-2.954052761197090149e-02
-3.033705428242683411e-02
-3.101222589612007141e-02
-3.156494349241256714e-02
-3.199518471956253052e-02
-3.230311721563339233e-02
-3.248719871044158936e-02
-3.254283964633941650e-02
-3.246383368968963623e-02
-3.224525600671768188e-02
-3.188655525445938110e-02
-3.139433637261390686e-02
-3.078228235244750977e-02
-3.006650879979133606e-02
-2.925968542695045471e-02
-2.836639434099197388e-02
-2.737430855631828308e-02
-2.623669058084487915e-02
-2.485494315624237061e-02
-2.307603508234024048e-02
-2.071136981248855591e-02
-1.757174357771873474e-02
-1.350804790854454041e-02
-8.450014516711235046e-03
-2.435538917779922485e-03
4.380045458674430847e-03
1.173826679587364197e-02
1.930745691061019897e-02
2.672076225280761719e-02
3.361803293228149414e-02
3.968515992164611816e-02
4.468238353729248047e-02
4.845701903104782104e-02
5.094396322965621948e-02
5.215920135378837585e-02
5.218823254108428955e-02
5.117369815707206726e-02
4.930301010608673096e-02
4.678680002689361572e-02
4.383237287402153015e-02
4.062864929437637329e-02
3.734213113784790039e-02
3.411368280649185181e-02
3.105239011347293854e-02
2.822769619524478912e-02
2.566526085138320923e-02
2.335000224411487579e-02
2.123330906033515930e-02
1.924244873225688934e-02
1.729313097894191742e-02
1.530298218131065369e-02
1.320365630090236664e-02
1.095108315348625183e-02
8.529270067811012268e-03
5.946236662566661835e-03
3.228450194001197815e-03
4.167305305600166321e-04
-2.438880503177642822e-03
-5.284793209284543991e-03
-8.068635128438472748e-03
-1.074376888573169708e-02
-1.327171735465526581e-02
-1.562131382524967194e-02
-1.776868849992752075e-02
-1.969888247549533844e-02
-2.140463143587112427e-02
-2.288219891488552094e-02
-2.412874251604080200e-02
-2.514412067830562592e-02
-2.593571692705154419e-02
-2.652100846171379089e-02
-2.692509070038795471e-02
-2.717633731663227081e-02
-2.730354294180870056e-02
-2.733562514185905457e-02
-2.730337716639041901e-02
-2.724054642021656036e-02
-2.718078531324863434e-02
-2.715061791241168976e-02
-2.716072835028171539e-02
-2.719469554722309113e-02
-2.719534933567047119e-02
-2.705390378832817078e-02
-2.660752087831497192e-02
-2.565041743218898773e-02
-2.396249212324619293e-02
-2.135156281292438507e-02
-1.769588515162467957e-02
-1.297614350914955139e-02
-7.292119786143302917e-03
-8.588302880525588989e-04
6.017780397087335587e-03
1.297703012824058533e-02
1.964480802416801453e-02
2.567520551383495331e-02
3.078621625900268555e-02
3.478303179144859314e-02
3.756394982337951660e-02
3.911157697439193726e-02
3.947848454117774963e-02
3.877357020974159241e-02
3.715007752180099487e-02
3.479281067848205566e-02
3.190279006958007812e-02
2.868105843663215637e-02
2.531468495726585388e-02
2.196715027093887329e-02
1.877084746956825256e-02
1.581898517906665802e-02
1.315968483686447144e-02
1.079703308641910553e-02
8.698681369423866272e-03
6.806220859289169312e-03
5.047092214226722717e-03
3.346551209688186646e-03
1.635455526411533356e-03
-1.456877216696739197e-04
-2.041163854300975800e-03
-4.072756506502628326e-03
-6.236418150365352631e-03
-8.506047539412975311e-03
-1.084129139780998230e-02
-1.319379918277263641e-02
-1.551062799990177155e-02
-1.773929223418235779e-02
-1.983588933944702148e-02
-2.177073061466217041e-02
-2.352778986096382141e-02
-2.510049194097518921e-02
-2.648717537522315979e-02
-2.768800035119056702e-02
-2.870466560125350952e-02
-2.954140678048133850e-02
-3.020421415567398071e-02
-3.069890290498733521e-02
-3.103131800889968872e-02
-3.120994195342063904e-02
-3.124620392918586731e-02
-3.115055337548255920e-02
-3.093004040420055389e-02
-3.059042058885097504e-02
-3.013944067060947418e-02
-2.958733215928077698e-02
-2.894377708435058594e-02
-2.821530029177665710e-02
-2.740629762411117554e-02
-2.651930227875709534e-02
-2.554736286401748657e-02
-2.445827797055244446e-02
-2.317694202065467834e-02
-2.157469466328620911e-02
-1.947564631700515747e-02
-1.668423227965831757e-02
-1.302815042436122894e-02
-8.403804153203964233e-03
-2.808291465044021606e-03
3.651222214102745056e-03
1.076624169945716858e-02
1.824627444148063660e-02
2.574651502072811127e-02
3.290367871522903442e-02
3.937838599085807800e-02
4.489467293024063110e-02
4.926277697086334229e-02
5.238261073827743530e-02
5.423586815595626831e-02
5.487432330846786499e-02
5.440720543265342712e-02
5.298700556159019470e-02
5.079473182559013367e-02
4.802591726183891296e-02
4.487769678235054016e-02
4.153728112578392029e-02
3.817114979028701782e-02
3.491442278027534485e-02
3.186210244894027710e-02
2.906404435634613037e-02
2.652459032833576202e-02
2.420852705836296082e-02
2.205335721373558044e-02
1.998285949230194092e-02
1.791856437921524048e-02
1.578972116112709045e-02
1.354185305535793304e-02
1.114347577095031738e-02
8.589721284806728363e-03
5.900270305573940277e-03
3.110916353762149811e-03
2.641137689352035522e-04
-2.596752252429723740e-03
-5.430724937468767166e-03
-8.200682699680328369e-03
-1.087303087115287781e-02
-1.341759786009788513e-02
-1.580704376101493835e-02
-1.801650412380695343e-02
-2.002576366066932678e-02
-2.182225510478019714e-02
-2.340246364474296570e-02
-2.477254159748554230e-02
-2.594880014657974243e-02
-2.695548161864280701e-02
-2.781781554222106934e-02
-2.855536341667175293e-02
-2.918035909533500671e-02
-2.969722636044025421e-02
-3.010104782879352570e-02
-3.037957288324832916e-02
-3.051991201937198639e-02
-3.051500581204891205e-02
-3.036608174443244934e-02
-3.008175268769264221e-02
-2.967622876167297363e-02
-2.916713617742061615e-02
-2.857139334082603455e-02
-2.789651229977607727e-02
-2.712632529437541962e-02
-2.620511874556541443e-02
-2.502752840518951416e-02
-2.344105951488018036e-02
-2.126405388116836548e-02
-1.831661723554134369e-02
-1.445895619690418243e-02
-9.629640728235244751e-03
-3.872659057378768921e-03
2.654973417520523071e-03
9.693676605820655823e-03
1.690727286040782928e-02
2.392388321459293365e-02
3.038403205573558807e-02
3.598275780677795410e-02
4.049617052078247070e-02
4.379196465015411377e-02
4.582889378070831299e-02
4.664780944585800171e-02
4.635594785213470459e-02
4.510822147130966187e-02
4.308877140283584595e-02
4.049577191472053528e-02
3.752969577908515930e-02
3.438162058591842651e-02
3.122124262154102325e-02
2.818726003170013428e-02
2.538063749670982361e-02
2.286024950444698334e-02
2.064052224159240723e-02
1.869270019233226776e-02
1.695352047681808472e-02
1.533983834087848663e-02
1.376269944012165070e-02
1.213865354657173157e-02
1.039999350905418396e-02
8.501760661602020264e-03
6.423035636544227600e-03
4.164089448750019073e-03
1.743057742714881897e-03
-8.063735440373420715e-04
-3.438509069383144379e-03
-6.100856699049472809e-03
-8.739097975194454193e-03
-1.130161993205547333e-02
-1.374358683824539185e-02
-1.602960377931594849e-02
-1.813486777245998383e-02
-2.004454657435417175e-02
-2.175095677375793457e-02
-2.325087785720825195e-02
-2.454573661088943481e-02
-2.564324438571929932e-02
-2.655601873993873596e-02
-2.729782462120056152e-02
-2.788496389985084534e-02
-2.834136784076690674e-02
-2.869639173150062561e-02
-2.897678129374980927e-02
-2.920239791274070740e-02
-2.938407659530639648e-02
-2.951615676283836365e-02
-2.956110611557960510e-02
-2.943191304802894592e-02
-2.898504212498664856e-02
-2.803172543644905090e-02
-2.636537514626979828e-02
-2.380045503377914429e-02
-2.021604403853416443e-02
-1.559129543602466583e-02
-1.001977175474166870e-02
-3.701830282807350159e-03
3.075563814491033554e-03
9.967805817723274231e-03
1.661094650626182556e-02
2.266302332282066345e-02
2.783829160034656525e-02
3.192964941263198853e-02
3.481947630643844604e-02
3.647875413298606873e-02
3.695584833621978760e-02
3.636100143194198608e-02
3.485253825783729553e-02
3.262387588620185852e-02
2.988607063889503479e-02
2.684823796153068542e-02
2.370295859873294830e-02
2.061548642814159393e-02
1.771472208201885223e-02
1.508804969489574432e-02
1.277791522443294525e-02
1.077923551201820374e-02
9.043719619512557983e-03
7.493112236261367798e-03
6.034709513187408447e-03
4.575681872665882111e-03
3.038273192942142487e-03
1.370913349092006683e-03
-4.518162459135055542e-04
-2.434561960399150848e-03
-4.562844522297382355e-03
-6.802627816796302795e-03
-9.103437885642051697e-03
-1.140698604285717010e-02
-1.365704555064439774e-02
-1.580456085503101349e-02
-1.781113259494304657e-02
-1.965422928333282471e-02
-2.132695913314819336e-02
-2.283075451850891113e-02
-2.416897937655448914e-02
-2.534459903836250305e-02
-2.636028639972209930e-02
-2.721870504319667816e-02
-2.792120352387428284e-02
-2.846731245517730713e-02
-2.885734662413597107e-02
-2.909574098885059357e-02
-2.919158525764942169e-02
-2.915652096271514893e-02
-2.900346741080284119e-02
-2.874645031988620758e-02
-2.839774824678897858e-02
-2.796367183327674866e-02
-2.744407579302787781e-02
-2.683400176465511322e-02
-2.612009830772876740e-02
-2.526655420660972595e-02
-2.419510856270790100e-02
-2.277502231299877167e-02
-2.083367481827735901e-02
-1.818395778536796570e-02
-1.466245576739311218e-02
-1.017178781330585480e-02
-4.712335765361785889e-03
1.607385464012622833e-03
8.577238768339157104e-03
1.590341702103614807e-02
2.323983609676361084e-02
3.022995963692665100e-02
3.654683753848075867e-02
4.192338883876800537e-02
4.617334157228469849e-02
4.920036718249320984e-02
5.099204182624816895e-02
5.160467326641082764e-02
5.114796385169029236e-02
4.977143555879592896e-02
4.765104502439498901e-02
4.497555643320083618e-02
4.193254932761192322e-02
3.869587928056716919e-02
3.541737422347068787e-02
3.222121298313140869e-02
2.919697202742099762e-02
2.639238722622394562e-02
2.381289005279541016e-02
2.143022604286670685e-02
1.919344998896121979e-02
1.703746616840362549e-02
1.489305496215820312e-02
1.270009018480777740e-02
1.041833683848381042e-02
8.030720055103302002e-03
5.540240556001663208e-03
2.963217906653881073e-03
3.204625099897384644e-04
-2.365244086831808090e-03
-5.062844604253768921e-03
-7.730738725513219833e-03
-1.032375171780586243e-02
-1.280126720666885376e-02
-1.513289846479892731e-02
-1.730155572295188904e-02
-1.929993554949760437e-02
-2.112278528511524200e-02
-2.276436612010002136e-02
-2.422212809324264526e-02
-2.549917250871658325e-02
-2.660237438976764679e-02
-2.753971889615058899e-02
-2.831861190497875214e-02
-2.894479595124721527e-02
-2.942453324794769287e-02
-2.976926602423191071e-02
-2.999622374773025513e-02
-3.012406453490257263e-02
-3.016817010939121246e-02
-3.013780526816844940e-02
-3.003529086709022522e-02
-2.985676378011703491e-02
-2.959451638162136078e-02
-2.924043871462345123e-02
-2.878682687878608704e-02
-2.822288870811462402e-02
-2.752709761261940002e-02
-2.665246278047561646e-02
-2.550917491316795349e-02
-2.395987883210182190e-02
-2.183564752340316772e-02
-1.896642707288265228e-02
-1.521746814250946045e-02
-1.052427664399147034e-02
-4.917427897453308105e-03
1.467750407755374908e-03
8.397679775953292847e-03
1.556448172777891159e-02
2.262390404939651489e-02
2.923570759594440460e-02
3.509737551212310791e-02
3.997021913528442383e-02
4.369590803980827332e-02
4.620047286152839661e-02
4.749023169279098511e-02
4.764311388134956360e-02
4.679339379072189331e-02
4.511301964521408081e-02
4.279597103595733643e-02
4.004592821002006531e-02
3.706315904855728149e-02
3.402727842330932617e-02
3.108017519116401672e-02
2.831762842833995819e-02
2.578873001039028168e-02
2.349838986992835999e-02
2.141675166785717010e-02
1.949476636946201324e-02
1.767534203827381134e-02
1.589770056307315826e-02
1.410130225121974945e-02
1.223099231719970703e-02
1.024250127375125885e-02
8.109108544886112213e-03
5.826525390148162842e-03
3.411000594496726990e-03
8.920342661440372467e-04
-1.694303005933761597e-03
-4.308191128075122833e-03
-6.905580405145883560e-03
-9.438084438443183899e-03
-1.185733824968338013e-02
-1.412206329405307770e-02
-1.620307564735412598e-02
-1.808569394052028656e-02
-1.976930722594261169e-02
-2.126144245266914368e-02
-2.257082983851432800e-02
-2.370696514844894409e-02
-2.468257024884223938e-02
-2.551273256540298462e-02
-2.621215954422950745e-02
-2.679301984608173370e-02
-2.726359106600284576e-02
-2.762804925441741943e-02
-2.788717113435268402e-02
-2.804085426032543182e-02
-2.809226140379905701e-02
-2.804881148040294647e-02
-2.791706286370754242e-02
-2.769306488335132599e-02
-2.734851650893688202e-02
-2.681520581245422363e-02
-2.597765810787677765e-02
-2.468206174671649933e-02
-2.275813743472099304e-02
-2.004864253103733063e-02
-1.644428446888923645e-02
-1.191550865769386292e-02
-6.531380116939544678e-03
-4.628291353583335876e-04
6.030683405697345734e-03
1.263119280338287354e-02
1.900202222168445587e-02
2.482650987803936005e-02
2.983866259455680847e-02
3.384269028902053833e-02
3.672026842832565308e-02
3.842918202280998230e-02
3.899926692247390747e-02
3.852554783225059509e-02
3.715453669428825378e-02
3.506517410278320312e-02
3.245083242654800415e-02
2.950558811426162720e-02
2.641212567687034607e-02
2.332988195121288300e-02
2.038696408271789551e-02
1.767614670097827911e-02
1.525043323636054993e-02
1.311934553086757660e-02
1.125240325927734375e-02
9.590203873813152313e-03
8.057640865445137024e-03
6.575032137334346771e-03
5.067431367933750153e-03
3.474106080830097198e-03
1.755957026034593582e-03
-1.026419922709465027e-04
-2.096130512654781342e-03
-4.201249219477176666e-03
-6.382592022418975830e-03
-8.600225672125816345e-03
-1.081477291882038116e-02
-1.298828236758708954e-02
-1.508321706205606461e-02
-1.706149801611900330e-02
-1.888603158295154572e-02
-2.052525058388710022e-02
-2.195852436125278473e-02
-2.317882329225540161e-02
-2.419026568531990051e-02
-2.500447630882263184e-02
-2.563972398638725281e-02
-2.612011879682540894e-02
-2.647185511887073517e-02
-2.671869657933712006e-02
-2.687878534197807312e-02
-2.696173451840877533e-02
-2.696761116385459900e-02
-2.689001709222793579e-02
-2.671942114830017090e-02
-2.644486539065837860e-02
-2.605781890451908112e-02
-2.555737271904945374e-02
-2.495138905942440033e-02
-2.425349131226539612e-02
-2.347973175346851349e-02
-2.264349907636642456e-02
-2.174358442425727844e-02
-2.074500359594821930e-02
-1.956175826489925385e-02
-1.805417425930500031e-02
-1.604419201612472534e-02
-1.334487460553646088e-02
-9.800627827644348145e-03
-5.329241976141929626e-03
4.912354052066802979e-05
6.204141303896903992e-03
1.290615461766719818e-02
1.985141262412071228e-02
2.669780887663364410e-02
3.310450166463851929e-02
3.876947984099388123e-02
4.346111416816711426e-02
4.703620448708534241e-02
4.943924024701118469e-02
5.068983510136604309e-02
5.086863040924072266e-02
5.010283738374710083e-02
4.855015128850936890e-02
4.638343304395675659e-02
4.377795010805130005e-02
4.090029746294021606e-02
3.789767622947692871e-02
3.488802909851074219e-02
3.195608034729957581e-02
2.915715426206588745e-02
2.652177959680557251e-02
2.405709214508533478e-02
2.174817211925983429e-02
1.956248469650745392e-02
1.745694689452648163e-02
1.538340188562870026e-02
1.329221576452255249e-02
1.113788411021232605e-02
8.885868825018405914e-03
6.516627967357635498e-03
4.026780836284160614e-03
1.429527066648006439e-03
-1.246271189302206039e-03
-3.959855064749717712e-03
-6.663037464022636414e-03
-9.303671307861804962e-03
-1.183051709085702896e-02
-1.420018263161182404e-02
-1.638217642903327942e-02
-1.835975423455238342e-02
-2.012832090258598328e-02
-2.169300243258476257e-02
-2.306644991040229797e-02
-2.426671236753463745e-02
-2.531090006232261658e-02
-2.620631828904151917e-02
-2.695330418646335602e-02
-2.756063081324100494e-02
-2.805183082818984985e-02
-2.845497429370880127e-02
-2.879033237695693970e-02
-2.906588464975357056e-02
-2.927985601127147675e-02
-2.942430600523948669e-02
-2.948622964322566986e-02
-2.944976650178432465e-02
-2.930173836648464203e-02
-2.903538756072521210e-02
-2.864800021052360535e-02
-2.813241258263587952e-02
-2.746383659541606903e-02
-2.658411487936973572e-02
-2.538823336362838745e-02
-2.372498810291290283e-02
-2.142107672989368439e-02
-1.832007989287376404e-02
-1.432174630463123322e-02
-9.413786232471466064e-03
-3.690402954816818237e-03
2.648682333528995514e-03
9.321530349552631378e-03
1.600173488259315491e-02
2.235713228583335876e-02
2.808480709791183472e-02
3.294061869382858276e-02
3.675784915685653687e-02
3.945371508598327637e-02
4.102514684200286865e-02
4.153462871909141541e-02
4.109216108918190002e-02
3.984149545431137085e-02
3.794951736927032471e-02
3.559330105781555176e-02
3.294660151004791260e-02
3.016976267099380493e-02
2.740177139639854431e-02
2.475297264754772186e-02
2.229977212846279144e-02
2.008187398314476013e-02
1.810168474912643433e-02
1.632755249738693237e-02
1.470151357352733612e-02
1.314963027834892273e-02
1.159523427486419678e-02
9.972741827368736267e-03
8.234893903136253357e-03
6.353784352540969849e-03
4.321685992181301117e-03
2.150126732885837555e-03
-1.355139538645744324e-04
-2.500815317034721375e-03
-4.903413355350494385e-03
-7.294929120689630508e-03
-9.626435115933418274e-03
-1.185456942766904831e-02
-1.394526753574609756e-02
-1.587480120360851288e-02
-1.762977056205272675e-02
-1.920744776725769043e-02
-2.061538770794868469e-02
-2.186665311455726624e-02
-2.297157421708106995e-02
-2.393334358930587769e-02
-2.474923059344291687e-02
-2.541373297572135925e-02
-2.592344023287296295e-02
-2.628163620829582214e-02
-2.649833634495735168e-02
-2.658782899379730225e-02
-2.656771242618560791e-02
-2.645798958837985992e-02
-2.627507969737052917e-02
-2.601540833711624146e-02
-2.563370764255523682e-02
-2.502766810357570648e-02
-2.403604052960872650e-02
-2.246198803186416626e-02
-2.012209407985210419e-02
-1.689412817358970642e-02
-1.274403929710388184e-02
-7.736643776297569275e-03
-2.035309560596942902e-03
4.112190101295709610e-03
1.040208712220191956e-02
1.651042699813842773e-02
2.212978899478912354e-02
2.700267732143402100e-02
3.094411268830299377e-02
3.384794294834136963e-02
3.568094223737716675e-02
3.647249191999435425e-02
3.630273044109344482e-02
3.528983145952224731e-02
3.357860445976257324e-02
3.133131563663482666e-02
2.871829457581043243e-02
2.590624429285526276e-02
2.304544672369956970e-02
2.026037126779556274e-02
1.764484122395515442e-02
1.525832340121269226e-02
1.312455534934997559e-02
1.123444177210330963e-02
9.549323469400405884e-03
8.005676791071891785e-03
6.526404991745948792e-03
5.035046488046646118e-03
3.466750495135784149e-03
1.777359284460544586e-03
-4.979968070983886719e-05
-2.006256952881813049e-03
-4.067962989211082458e-03
-6.201947107911109924e-03
-8.368347771465778351e-03
-1.052198372781276703e-02
-1.261528581380844116e-02
-1.460304576903581619e-02
-1.644821651279926300e-02
-1.812630519270896912e-02
-1.962674967944622040e-02
-2.095216698944568634e-02
-2.211535163223743439e-02
-2.313430234789848328e-02
-2.402755804359912872e-02
-2.480882406234741211e-02
-2.548179402947425842e-02
-2.604112401604652405e-02
-2.647834457457065582e-02
-2.678713947534561157e-02
-2.696765586733818054e-02
-2.702807076275348663e-02
-2.698021009564399719e-02
-2.683300338685512543e-02
-2.659011445939540863e-02
-2.625264227390289307e-02
-2.582355029881000519e-02
-2.531094476580619812e-02
-2.472786977887153625e-02
-2.408817037940025330e-02
-2.339812181890010834e-02
-2.264162153005599976e-02
-2.176143042743206024e-02
-2.064638398587703705e-02
-1.913401670753955841e-02
-1.703151129186153412e-02
-1.415116898715496063e-02
-1.035135611891746521e-02
-5.572805181145668030e-03
1.366045325994491577e-04
6.613783538341522217e-03
1.359478197991847992e-02
2.074907161295413971e-02
2.772206999361515045e-02
3.417694568634033203e-02
3.982979804277420044e-02
4.447212070226669312e-02
4.797869548201560974e-02
5.030275881290435791e-02
5.146420747041702271e-02
5.153859034180641174e-02
5.064752697944641113e-02
4.894666001200675964e-02
4.661178216338157654e-02
4.382585361599922180e-02
4.076654091477394104e-02
3.759387880563735962e-02
3.444229811429977417e-02
3.141810745000839233e-02
2.859580144286155701e-02
2.601075917482376099e-02
2.365688607096672058e-02
2.149403467774391174e-02
1.945925690233707428e-02
1.747811771929264069e-02
1.547683402895927429e-02
1.339252479374408722e-02
1.117978803813457489e-02
8.815035223960876465e-03
6.297993473708629608e-03
3.650482743978500366e-03
9.125731885433197021e-04
-1.865326426923274994e-03
-4.631718620657920837e-03
-7.339353207498788834e-03
-9.947143495082855225e-03
-1.242286618798971176e-02
-1.474578492343425751e-02
-1.690590754151344299e-02
-1.890068873763084412e-02
-2.073132619261741638e-02
-2.240006998181343079e-02
-2.390887588262557983e-02
-2.525854483246803284e-02
-2.644999325275421143e-02
-2.748724818229675293e-02
-2.837796136736869812e-02
-2.913176640868186951e-02
-2.975824847817420959e-02
-3.026370517909526825e-02
-3.064926341176033020e-02
-3.091451525688171387e-02
-3.106259554624557495e-02
-3.109885752201080322e-02
-3.102682903409004211e-02
-3.084839507937431335e-02
-3.056516684591770172e-02
-3.017923980951309204e-02
-2.969445846974849701e-02
-2.911248244345188141e-02
-2.841930650174617767e-02
-2.756891027092933655e-02
-2.647288143634796143e-02
-2.499850094318389893e-02
-2.297969534993171692e-02
-2.024497278034687042e-02
-1.665398478507995605e-02
-1.213186606764793396e-02
-6.697326898574829102e-03
-4.769796505570411682e-04
6.302522495388984680e-03
1.334000471979379654e-02
2.029279433190822601e-02
2.681445516645908356e-02
3.259494155645370483e-02
3.739378601312637329e-02
4.105819389224052429e-02
4.352466017007827759e-02
4.480883479118347168e-02
4.499148577451705933e-02
4.420413449406623840e-02
4.261314123868942261e-02
4.040355980396270752e-02
3.776498883962631226e-02
3.487852215766906738e-02
3.190469369292259216e-02
2.897624298930168152e-02
2.619613148272037506e-02
2.363571710884571075e-02
2.133088931441307068e-02
1.927886717021465302e-02
1.744022406637668610e-02
1.574938930571079254e-02
1.413025520741939545e-02
1.250971481204032898e-02
1.082699559628963470e-02
9.038951247930526733e-03
7.121019065380096436e-03
5.066130310297012329e-03
2.882399596273899078e-03
5.893995985388755798e-04
-1.785058528184890747e-03
-4.206558689475059509e-03
-6.635170429944992065e-03
-9.027836844325065613e-03
-1.134238671511411667e-02
-1.354173477739095688e-02
-1.559709757566452026e-02
-1.748940721154212952e-02
-1.920843869447708130e-02
-2.075121551752090454e-02
-2.212088555097579956e-02
-2.332443185150623322e-02
-2.436940930783748627e-02
-2.526219934225082397e-02
-2.600859105587005615e-02
-2.661729045212268829e-02
-2.710389345884323120e-02
-2.748879231512546539e-02
-2.778932452201843262e-02
-2.801439724862575531e-02
-2.816525101661682129e-02
-2.823690697550773621e-02
-2.821229957044124603e-02
-2.804800681769847870e-02
-2.765933237969875336e-02
-2.691426686942577362e-02
-2.564366161823272705e-02
-2.366860397160053253e-02
-2.083758078515529633e-02
-1.706253178417682648e-02
-1.234446465969085693e-02
-6.784884259104728699e-03
-5.826624110341072083e-04
5.984249990433454514e-03
1.259049959480762482e-02
1.890191063284873962e-02
2.461129240691661835e-02
2.946345508098602295e-02
3.326994553208351135e-02
3.591946512460708618e-02
3.738303482532501221e-02
3.770813345909118652e-02
3.700391948223114014e-02
3.542616218328475952e-02
3.316435217857360840e-02
3.042658045887947083e-02
2.742109820246696472e-02
2.433903329074382782e-02
2.134177275002002716e-02
1.855285838246345520e-02
1.605244725942611694e-02
1.387383788824081421e-02
1.200397871434688568e-02
1.038962043821811676e-02
8.949682116508483887e-03
7.591759786009788513e-03
6.228456273674964905e-03
4.789690487086772919e-03
3.227827139198780060e-03
1.517213881015777588e-03
-3.464668989181518555e-04
-2.346605062484741211e-03
-4.448579624295234680e-03
-6.606069393455982208e-03
-8.770477026700973511e-03
-1.089905295521020889e-02
-1.295637898147106171e-02
-1.491202972829341888e-02
-1.674083806574344635e-02
-1.842542923986911774e-02
-1.995637267827987671e-02
-2.133049070835113525e-02
-2.255025506019592285e-02
-2.362220175564289093e-02
-2.455280721187591553e-02
-2.534526214003562927e-02
-2.599874325096607208e-02
-2.650961466133594513e-02
-2.687516994774341583e-02
-2.709755860269069672e-02
-2.718545868992805481e-02
-2.715318836271762848e-02
-2.701638638973236084e-02
-2.678710035979747772e-02
-2.647314034402370453e-02
-2.607915550470352173e-02
-2.560258656740188599e-02
-2.502192184329032898e-02
-2.428012900054454803e-02
-2.327254042029380798e-02
-2.184844203293323517e-02
-1.982684433460235596e-02
-1.702489145100116730e-02
-1.329754665493965149e-02
-8.578794077038764954e-03
-2.908842638134956360e-03
3.560362383723258972e-03
1.057816296815872192e-02
1.782231964170932770e-02
2.493650652468204498e-02
3.157285228371620178e-02
3.743055090308189392e-02
4.228118807077407837e-02
4.598010331392288208e-02
4.846704751253128052e-02
4.975784942507743835e-02
4.993003979325294495e-02
4.910628870129585266e-02
4.743983969092369080e-02
4.510407149791717529e-02
4.228310659527778625e-02
3.915996104478836060e-02
3.590315207839012146e-02
3.265658766031265259e-02
2.953325212001800537e-02
2.660951577126979828e-02
2.392158471047878265e-02
2.146777883172035217e-02
1.921590417623519897e-02
1.711172424256801605e-02
1.508716493844985962e-02
1.306996867060661316e-02
1.099437102675437927e-02
8.810468018054962158e-03
6.490277126431465149e-03
4.028604365885257721e-03
1.439929008483886719e-03
-1.244852319359779358e-03
-3.982161171734333038e-03
-6.722507067024707794e-03
-9.418332949280738831e-03
-1.202860847115516663e-02
-1.451946794986724854e-02
-1.686355285346508026e-02
-1.903939992189407349e-02
-2.103067189455032349e-02
-2.282635122537612915e-02
-2.442350052297115326e-02
-2.583064883947372437e-02
-2.706595137715339661e-02
-2.814961597323417664e-02
-2.909711375832557678e-02
-2.991656213998794556e-02
-3.061004914343357086e-02
-3.117854893207550049e-02
-3.162693977355957031e-02
-3.196485340595245361e-02
-3.220345824956893921e-02
-3.234984353184700012e-02
-3.240203484892845154e-02
-3.234811872243881226e-02
-3.216508030891418457e-02
-3.180876746773719788e-02
-3.119677677750587463e-02
-3.019828163087368011e-02
-2.864134125411510468e-02
-2.633689530193805695e-02
-2.311531640589237213e-02
-1.886975578963756561e-02
-1.359192095696926117e-02
-7.386164739727973938e-03
-4.630303010344505310e-04
6.879935041069984436e-03
1.428897306323051453e-02
2.139470726251602173e-02
2.785402536392211914e-02
3.338525444269180298e-02
3.779087215662002563e-02
4.096385836601257324e-02
4.288093373179435730e-02
4.359110817313194275e-02
4.320245981216430664e-02
4.186574742197990417e-02
3.975819423794746399e-02
3.707185760140419006e-02
3.400415554642677307e-02
3.074660152196884155e-02
2.747217752039432526e-02
2.432356961071491241e-02
2.140244841575622559e-02
1.876204647123813629e-02
1.640778966248035431e-02
1.430571265518665314e-02
1.239486783742904663e-02
1.059995405375957489e-02
8.841639384627342224e-03
7.046660408377647400e-03
5.158524028956890106e-03
3.144111484289169312e-03
9.939353913068771362e-04
-1.280917786061763763e-03
-3.653069958090782166e-03
-6.083276122808456421e-03
-8.524996228516101837e-03
-1.093105599284172058e-02
-1.325969118624925613e-02
-1.547554135322570801e-02
-1.754908636212348938e-02
-1.945860497653484344e-02
-2.119107358157634735e-02
-2.274089679121971130e-02
-2.410924807190895081e-02
-2.530240640044212341e-02
-2.632792852818965912e-02
-2.719224616885185242e-02
-2.790130488574504852e-02
-2.846137061715126038e-02
-2.887912094593048096e-02
-2.916259132325649261e-02
-2.932216040790081024e-02
-2.937186695635318756e-02
-2.933155000209808350e-02
-2.922401204705238342e-02
-2.906505949795246124e-02
-2.885460667312145233e-02
-2.857146784663200378e-02
-2.816306427121162415e-02
-2.753025665879249573e-02
-2.652256935834884644e-02
-2.495275810360908508e-02
-2.262587472796440125e-02
-1.937673240900039673e-02
-1.510949060320854187e-02
-9.829232469201087952e-03
-3.656452521681785583e-03
3.179239109158515930e-03
1.036390569061040878e-02
1.753711700439453125e-02
2.433487959206104279e-02
3.042745962738990784e-02
3.554695099592208862e-02
3.950615599751472473e-02
4.220885038375854492e-02
4.364790767431259155e-02
4.389368742704391479e-02
4.307905957102775574e-02
4.138122498989105225e-02
3.900091350078582764e-02
3.614629805088043213e-02
3.302283212542533875e-02
2.982253208756446838e-02
2.671163901686668396e-02
2.381844073534011841e-02
2.122230269014835358e-02
1.894849166274070740e-02
1.697310805320739746e-02
1.523614488542079926e-02
1.365610025823116302e-02
1.214286684989929199e-02
1.061042211949825287e-02
8.987511508166790009e-03
7.223281078040599823e-03
5.291219800710678101e-03
3.192450385540723801e-03
9.526861831545829773e-04
-1.386778894811868668e-03
-3.776773111894726753e-03
-6.164051126688718796e-03
-8.494681678712368011e-03
-1.072055846452713013e-02
-1.280688680708408356e-02
-1.473407167941331863e-02
-1.649384200572967529e-02
-1.808672584593296051e-02
-1.952087506651878357e-02
-2.080655284225940704e-02
-2.195015549659729004e-02
-2.295376732945442200e-02
-2.381673827767372131e-02
-2.453598938882350922e-02
-2.510726079344749451e-02
-2.552891708910465240e-02
-2.580606006085872650e-02
-2.595018409192562103e-02
-2.597443759441375732e-02
-2.589197084307670593e-02
-2.571891807019710541e-02
-2.547276392579078674e-02
-2.516431920230388641e-02
-2.479161694645881653e-02
-2.433469146490097046e-02
-2.374330908060073853e-02
-2.292172610759735107e-02
-2.172330021858215332e-02
-1.996197551488876343e-02
-1.744111441075801849e-02
-1.399467512965202332e-02
-9.528866037726402283e-03
-4.053408280014991760e-03
2.304378896951675415e-03
9.307634085416793823e-03
1.663774624466896057e-02
2.393309026956558228e-02
3.083279728889465332e-02
3.701817244291305542e-02
4.224058613181114197e-02
4.633351042866706848e-02
4.921410232782363892e-02
5.087716877460479736e-02
5.138322710990905762e-02
5.084208771586418152e-02
4.939554631710052490e-02
4.720507934689521790e-02
4.444471746683120728e-02
4.129369929432868958e-02
3.792492300271987915e-02
3.449267148971557617e-02
3.112394921481609344e-02
2.791160158812999725e-02
2.490785717964172363e-02
2.212341129779815674e-02
1.953433826565742493e-02
1.709236577153205872e-02
1.473465934395790100e-02
1.239316165447235107e-02
1.000445149838924408e-02
7.519353181123733521e-03
4.909638315439224243e-03
2.169462852180004120e-03
-6.863847374916076660e-04
-3.624056465923786163e-03
-6.594613194465637207e-03
-9.542917832732200623e-03
-1.241703610867261887e-02
-1.517272647470235825e-02
-1.777255535125732422e-02
-2.018535695970058441e-02
-2.239104360342025757e-02
-2.438526041805744171e-02
-2.617735601961612701e-02
-2.778347022831439972e-02
-2.921850420534610748e-02
-3.049023076891899109e-02
-3.159922361373901367e-02
-3.254499658942222595e-02
-3.333232551813125610e-02
-3.397149220108985901e-02
-3.447297215461730957e-02
-3.484117984771728516e-02
-3.507311642169952393e-02
-3.516455739736557007e-02
-3.511723130941390991e-02
-3.493931144475936890e-02
-3.463972359895706177e-02
-3.422392904758453369e-02
-3.369623795151710510e-02
-3.306379914283752441e-02
-3.233683109283447266e-02
-3.152658790349960327e-02
-3.064205870032310486e-02
-2.968265116214752197e-02
-2.862448617815971375e-02
-2.740253508090972900e-02
-2.589837461709976196e-02
-2.394452691078186035e-02
-2.134653553366661072e-02
-1.791625469923019409e-02
-1.351197436451911926e-02
-8.079342544078826904e-03
-1.680629327893257141e-03
5.498785525560379028e-03
1.316862367093563080e-02
2.097062952816486359e-02
2.852568775415420532e-02
3.548015654087066650e-02
4.154010862112045288e-02
4.649009555578231812e-02
5.020101740956306458e-02
5.263047665357589722e-02
5.381575226783752441e-02
5.385903269052505493e-02
5.290751159191131592e-02
5.113536864519119263e-02
4.873086512088775635e-02
4.588446021080017090e-02
4.277595505118370056e-02
3.956373035907745361e-02
3.637728467583656311e-02
3.331179916858673096e-02
3.042572923004627228e-02
2.774192579090595245e-02
2.525219507515430450e-02
2.292545698583126068e-02
2.071560546755790710e-02
1.856769621372222900e-02
1.642572320997714996e-02
1.424019038677215576e-02
1.197291165590286255e-02
9.600025601685047150e-03
7.112831808626651764e-03
4.518096335232257843e-03
1.838542520999908447e-03
-8.902545087039470673e-04
-3.625662531703710556e-03
-6.322514265775680542e-03
-8.936058729887008667e-03
-1.142479851841926575e-02
-1.375474408268928528e-02
-1.590308919548988342e-02
-1.785751245915889740e-02
-1.961358822882175446e-02
-2.117444388568401337e-02
-2.255059778690338135e-02
-2.375731989741325378e-02
-2.481086924672126770e-02
-2.572575956583023071e-02
-2.651428431272506714e-02
-2.718658000230789185e-02
-2.774913422763347626e-02
-2.820359542965888977e-02
-2.854781784117221832e-02
-2.877842076122760773e-02
-2.889333665370941162e-02
-2.889362350106239319e-02
-2.878475375473499298e-02
-2.857747487723827362e-02
-2.828716300427913666e-02
-2.793017029762268066e-02
-2.751794457435607910e-02
-2.704977244138717651e-02
-2.650010585784912109e-02
-2.579950541257858276e-02
-2.482108213007450104e-02
-2.338582463562488556e-02
-2.128953486680984497e-02
-1.834427379071712494e-02
-1.442223787307739258e-02
-9.490832686424255371e-03
-3.631895408034324646e-03
2.957491204142570496e-03
9.983371011912822723e-03
1.709200441837310791e-02
2.391642332077026367e-02
3.011674620211124420e-02
3.540929406881332397e-02
3.958743810653686523e-02
4.253161698579788208e-02
4.420810565352439880e-02
4.466141760349273682e-02
4.400348663330078125e-02
4.240036755800247192e-02
4.005479812622070312e-02
3.718565404415130615e-02
3.400838002562522888e-02
3.071835637092590332e-02
2.747848629951477051e-02
2.441383153200149536e-02
2.161232754588127136e-02
1.912461034953594208e-02
1.696001179516315460e-02
1.508538611233234406e-02
1.343240961432456970e-02
1.191016659140586853e-02
1.041922625154256821e-02
8.866476826369762421e-03
7.178653031587600708e-03
5.312306806445121765e-03
3.256803378462791443e-03
1.028614118695259094e-03
-1.337003894150257111e-03
-3.791492432355880737e-03
-6.277820561081171036e-03
-8.736781775951385498e-03
-1.111380010843276978e-02
-1.336525753140449524e-02
-1.546216383576393127e-02
-1.738942600786685944e-02
-1.914298161864280701e-02
-2.072656899690628052e-02
-2.214688062667846680e-02
-2.340919151902198792e-02
-2.451761998236179352e-02
-2.547714859247207642e-02
-2.629275619983673096e-02
-2.696817368268966675e-02
-2.750742435455322266e-02
-2.791672013700008392e-02
-2.820314653217792511e-02
-2.837174572050571442e-02
-2.842524461448192596e-02
-2.836620062589645386e-02
-2.819936536252498627e-02
-2.793328277766704559e-02
-2.757928147912025452e-02
-2.714875899255275726e-02
-2.664997242391109467e-02
-2.608104608952999115e-02
-2.541918493807315826e-02
-2.460716478526592255e-02
-2.353771775960922241e-02
-2.204636670649051666e-02
-1.992609910666942596e-02
-1.696489565074443817e-02
-1.299463398754596710e-02
-7.935237139463424683e-03
-1.823235303163528442e-03
5.178008228540420532e-03
1.279030926525592804e-02
2.065553888678550720e-02
2.838149666786193848e-02
3.558631986379623413e-02
4.193704575300216675e-02
4.717814177274703979e-02
5.114650726318359375e-02
5.377389118075370789e-02
5.507776513695716858e-02
5.514414608478546143e-02
5.410980805754661560e-02
5.214669182896614075e-02
4.944738373160362244e-02
4.621103033423423767e-02
4.262993484735488892e-02
3.887769207358360291e-02
3.509923815727233887e-02
3.140459954738616943e-02
2.786701172590255737e-02
2.452247962355613708e-02
2.137032151222229004e-02
1.837888360023498535e-02
1.549853570759296417e-02
1.267694309353828430e-02
9.868869557976722717e-03
7.039358839392662048e-03
4.164362326264381409e-03
1.231265254318714142e-03
-1.759992912411689758e-03
-4.796153865754604340e-03
-7.851883769035339355e-03
-1.089370157569646835e-02
-1.388564519584178925e-02
-1.679240167140960693e-02
-1.957896538078784943e-02
-2.221099287271499634e-02
-2.465702593326568604e-02
-2.689078450202941895e-02
-2.889402583241462708e-02
-3.066050261259078979e-02
-3.219611570239067078e-02
-3.351350128650665283e-02
-3.462688624858856201e-02
-3.554968163371086121e-02
-3.629422187805175781e-02
-3.687313571572303772e-02
-3.729862719774246216e-02
-3.757873177528381348e-02
-3.771597892045974731e-02
-3.771106898784637451e-02
-3.756691515445709229e-02
-3.728929534554481506e-02
-3.688572347164154053e-02
-3.636442497372627258e-02
-3.573382645845413208e-02
-3.500273451209068298e-02
-3.417978808283805847e-02
-3.326942026615142822e-02
-3.226134926080703735e-02
-3.111263364553451538e-02
-2.972939610481262207e-02
-2.796214073896408081e-02
-2.562134340405464172e-02
-2.250990457832813263e-02
-1.846610568463802338e-02
-1.340701431035995483e-02
-7.358960807323455811e-03
-4.670666530728340149e-04
7.015961222350597382e-03
1.475829165428876877e-02
2.238912507891654968e-02
2.954306453466415405e-02
3.590110689401626587e-02
4.121947288513183594e-02
4.534153267741203308e-02
4.819636419415473938e-02
4.978997260332107544e-02
5.019352957606315613e-02
4.953102767467498779e-02
4.796787723898887634e-02
4.570042341947555542e-02
4.294190555810928345e-02
3.990338370203971863e-02
3.677556663751602173e-02
3.371634334325790405e-02
3.084360994398593903e-02
2.823148481547832489e-02
2.590945735573768616e-02
2.386552281677722931e-02
2.205318398773670197e-02
2.040047012269496918e-02
1.882007904350757599e-02
1.722239144146442413e-02
1.553099229931831360e-02
1.369446143507957458e-02
1.168852392584085464e-02
9.512082673609256744e-03
7.183508016169071198e-03
4.736187867820262909e-03
2.211888320744037628e-03
-3.451476804912090302e-04
-2.891899552196264267e-03
-5.388942547142505646e-03
-7.802204694598913193e-03
-1.010386459529399872e-02
-1.227115932852029800e-02
-1.428344752639532089e-02
-1.612218469381332397e-02
-1.777578517794609070e-02
-1.924281008541584015e-02
-2.052935212850570679e-02
-2.164498716592788696e-02
-2.260088920593261719e-02
-2.340945228934288025e-02
-2.408442646265029907e-02
-2.464178949594497681e-02
-2.510100044310092926e-02
-2.548306062817573547e-02
-2.580232731997966766e-02
-2.605596743524074554e-02
-2.621520869433879852e-02
-2.621445804834365845e-02
-2.593927457928657532e-02
-2.522613666951656342e-02
-2.388123050332069397e-02
-2.171246334910392761e-02
-1.856888271868228912e-02
-1.438175886869430542e-02
-9.193750098347663879e-03
-3.164777532219886780e-03
3.442985005676746368e-03
1.029540039598941803e-02
1.702873781323432922e-02
2.329315990209579468e-02
2.878656424582004547e-02
3.327852860093116760e-02
3.662293404340744019e-02
3.875610232353210449e-02
3.968621790409088135e-02
3.948242589831352234e-02
3.826607763767242432e-02
3.620212897658348083e-02
3.348711878061294556e-02
3.033203631639480591e-02
2.694432437419891357e-02
2.351301163434982300e-02
2.019551023840904236e-02
1.710710301995277405e-02
1.431678608059883118e-02
1.184867881238460541e-02
9.686080738902091980e-03
7.778085768222808838e-03
6.050670519471168518e-03
4.420350305736064911e-03
2.804845571517944336e-03
1.129376702010631561e-03
-6.671203300356864929e-04
-2.623618580400943756e-03
-4.750966094434261322e-03
-7.032590918242931366e-03
-9.429153054952621460e-03
-1.188399456441402435e-02
-1.433134730905294418e-02
-1.670650765299797058e-02
-1.895306073129177094e-02
-2.102647721767425537e-02
-2.289673313498497009e-02
-2.455041743814945221e-02
-2.599003165960311890e-02
-2.722939662635326385e-02
-2.828719839453697205e-02
-2.918081358075141907e-02
-2.992279082536697388e-02
-3.052148595452308655e-02
-3.098372928798198700e-02
-3.131783008575439453e-02
-3.153596818447113037e-02
-3.165356442332267761e-02
-3.168494254350662231e-02
-3.163522481918334961e-02
-3.148801624774932861e-02
-3.119174577295780182e-02
-3.064732812345027924e-02
-2.970139868557453156e-02
-2.815614454448223114e-02
-2.580039948225021362e-02
-2.245329506695270538e-02
-1.800780184566974640e-02
-1.246354170143604279e-02
-5.941689014434814453e-03
1.320634968578815460e-03
8.994445204734802246e-03
1.669721677899360657e-02
2.403896674513816833e-02
3.066562861204147339e-02
3.629194945096969604e-02
4.072250798344612122e-02
4.385964572429656982e-02
4.569631442427635193e-02
4.629747569561004639e-02
4.577962309122085571e-02
4.429665207862854004e-02
4.203057661652565002e-02
3.917978703975677490e-02
3.594281151890754700e-02
3.250253945589065552e-02
2.901728823781013489e-02
2.561700716614723206e-02
2.239773795008659363e-02
1.941697485744953156e-02
1.669612154364585876e-02
1.422577165067195892e-02
1.196888647973537445e-02
9.865770116448402405e-03
7.844690233469009399e-03
5.835421383380889893e-03
3.779383376240730286e-03
1.633550971746444702e-03
-6.264671683311462402e-04
-3.001683391630649567e-03
-5.470721051096916199e-03
-7.998524233698844910e-03
-1.054466795176267624e-02
-1.306674629449844360e-02
-1.552050933241844177e-02
-1.785994321107864380e-02
-2.004057541489601135e-02
-2.202584594488143921e-02
-2.379319816827774048e-02
-2.533667534589767456e-02
-2.666415646672248840e-02
-2.779192849993705750e-02
-2.874126285314559937e-02
-2.953674830496311188e-02
-3.020332008600234985e-02
-3.076141886413097382e-02
-3.122352063655853271e-02
-3.159610182046890259e-02
-3.188274055719375610e-02
-3.208249062299728394e-02
-3.218899667263031006e-02
-3.219337388873100281e-02
-3.208297863602638245e-02
-3.183068335056304932e-02
-3.137655556201934814e-02
-3.061081469058990479e-02
-2.937130630016326904e-02
-2.746301889419555664e-02
-2.469410374760627747e-02
-2.091608941555023193e-02
-1.606068387627601624e-02
-1.016777381300926208e-02
-3.395356237888336182e-03
3.993207588791847229e-03
1.165880262851715088e-02
1.922741532325744629e-02
2.633619122207164764e-02
3.267106786370277405e-02
3.798902779817581177e-02
4.212976619601249695e-02
4.501872882246971130e-02
4.666109010577201843e-02
4.713065177202224731e-02
4.655599594116210938e-02
4.510377347469329834e-02
4.296224564313888550e-02
4.032760858535766602e-02
3.739178925752639771e-02
3.433059155941009521e-02
3.129228949546813965e-02
2.838879637420177460e-02
2.569172345101833344e-02
2.323186211287975311e-02
2.100083045661449432e-02
1.895785704255104065e-02
1.704134233295917511e-02
1.517919823527336121e-02
1.329704746603965759e-02
1.132883504033088684e-02
9.227866306900978088e-03
6.972443312406539917e-03
4.565537907183170319e-03
2.032044809311628342e-03
-5.850642919540405273e-04
-3.232710994780063629e-03
-5.858741234987974167e-03
-8.418790996074676514e-03
-1.087633054703474045e-02
-1.319980807602405548e-02
-1.536173559725284576e-02
-1.734065078198909760e-02
-1.912248879671096802e-02
-2.070017158985137939e-02
-2.207271754741668701e-02
-2.324435673654079437e-02
-2.422448433935642242e-02
-2.502710372209548950e-02
-2.566786855459213257e-02
-2.616254426538944244e-02
-2.652947977185249329e-02
-2.679016999900341034e-02
-2.696542814373970032e-02
-2.707231789827346802e-02
-2.712082304060459137e-02
-2.710635215044021606e-02
-2.699965983629226685e-02
-2.673457935452461243e-02
-2.619630098342895508e-02
-2.522210031747817993e-02
-2.362092211842536926e-02
-2.120467089116573334e-02
-1.782650500535964966e-02
-1.342190243303775787e-02
-8.035870268940925598e-03
-1.825656741857528687e-03
4.954147152602672577e-03
1.197723392397165298e-02
1.888097077608108521e-02
2.530771121382713318e-02
3.094405680894851685e-02
3.554989024996757507e-02
3.897248953580856323e-02
4.114647954702377319e-02
4.208526760339736938e-02
4.186923429369926453e-02
4.063270986080169678e-02
3.855253756046295166e-02
3.583785891532897949e-02
3.271367400884628296e-02
2.939784340560436249e-02
2.608182653784751892e-02
2.291875332593917847e-02
2.001623064279556274e-02
1.743275299668312073e-02
1.517695002257823944e-02
1.321146078407764435e-02
1.146413851529359818e-02
9.843604639172554016e-03
8.253159001469612122e-03
6.602824665606021881e-03
4.822762683033943176e-03
2.874737605452537537e-03
7.547247223556041718e-04
-1.513755414634943008e-03
-3.889178391546010971e-03
-6.318830884993076324e-03
-8.743394166231155396e-03
-1.110264845192432404e-02
-1.334377005696296692e-02
-1.542958617210388184e-02
-1.734106428921222687e-02
-1.907272264361381531e-02
-2.062623016536235809e-02
-2.200521714985370636e-02
-2.321085333824157715e-02
-2.424217574298381805e-02
-2.510265819728374481e-02
-2.580482885241508484e-02
-2.636829018592834473e-02
-2.681514248251914978e-02
-2.716593816876411438e-02
-2.743604592978954315e-02
-2.763175591826438904e-02
-2.774546854197978973e-02
-2.774894423782825470e-02
-2.758147940039634705e-02
-2.713469974696636200e-02
-2.624826878309249878e-02
-2.472798526287078857e-02
-2.238103188574314117e-02
-1.905727759003639221e-02
-1.468853652477264404e-02
-9.316327050328254700e-03
-3.099888563156127930e-03
3.696784377098083496e-03
1.073531433939933777e-02
1.764432713389396667e-02
2.406352013349533081e-02
2.968296967446804047e-02
3.427223116159439087e-02
3.769465535879135132e-02
3.990493342280387878e-02
4.093392193317413330e-02
4.086929559707641602e-02
3.983965516090393066e-02
3.800436854362487793e-02
3.554432094097137451e-02
3.264837712049484253e-02
2.949831634759902954e-02
2.625711634755134583e-02
2.305974997580051422e-02
2.000577002763748169e-02
1.715654134750366211e-02
1.453817635774612427e-02
1.214714534580707550e-02
9.954902343451976776e-03
7.912606000900268555e-03
5.958463996648788452e-03
4.027855582535266876e-03
2.064233645796775818e-03
2.672988921403884888e-05
-2.106439787894487381e-03
-4.336568992584943771e-03
-6.645637564361095428e-03
-8.999619632959365845e-03
-1.135256513953208923e-02
-1.365385018289089203e-02
-1.585668884217739105e-02
-1.792247220873832703e-02
-1.982285454869270325e-02
-2.154173329472541809e-02
-2.307362854480743408e-02
-2.441878430545330048e-02
-2.557926811277866364e-02
-2.655730955302715302e-02
-2.735642716288566589e-02
-2.798477932810783386e-02
-2.845620550215244293e-02
-2.878710068762302399e-02
-2.899249643087387085e-02
-2.908418327569961548e-02
-2.906926535069942474e-02
-2.894435450434684753e-02
-2.868274785578250885e-02
-2.821833081543445587e-02
-2.743512392044067383e-02
-2.617154642939567566e-02
-2.424270845949649811e-02
-2.147804200649261475e-02
-1.776461675763130188e-02
-1.308102160692214966e-02
-7.512478157877922058e-03
-1.246407628059387207e-03
5.446879193186759949e-03
1.224190276116132736e-02
1.879237219691276550e-02
2.477001398801803589e-02
2.990014292299747467e-02
3.398661315441131592e-02
3.692300990223884583e-02
3.868953883647918701e-02
3.933783248066902161e-02
3.897101432085037231e-02
3.772772103548049927e-02
3.577230870723724365e-02
3.328534215688705444e-02
3.045103326439857483e-02
2.744518406689167023e-02
2.442486770451068878e-02
2.151810564100742340e-02
1.881539262831211090e-02
1.636653579771518707e-02
1.418187562376260757e-02
1.223541330546140671e-02
1.047091279178857803e-02
8.812850341200828552e-03
7.181201130151748657e-03
5.505334585905075073e-03
3.731983713805675507e-03
1.828547567129135132e-03
-2.142293378710746765e-04
-2.381766680628061295e-03
-4.639992490410804749e-03
-6.942334584891796112e-03
-9.236132726073265076e-03
-1.146736461669206619e-02
-1.358549576252698898e-02
-1.555057056248188019e-02
-1.733910106122493744e-02
-1.894330978393554688e-02
-2.036499977111816406e-02
-2.161017619073390961e-02
-2.268694341182708740e-02
-2.360449172556400299e-02
-2.436896413564682007e-02
-2.497250214219093323e-02
-2.537693083286285400e-02
-2.549891918897628784e-02
-2.520559914410114288e-02
-2.432712726294994354e-02
-2.268637903034687042e-02
-2.013978920876979828e-02
-1.661654934287071228e-02
-1.214336790144443512e-02
-6.852796301245689392e-03
-9.755566716194152832e-04
5.184626206755638123e-03
1.128784194588661194e-02
1.699814572930335999e-02
2.202082984149456024e-02
2.612889558076858521e-02
2.917521260678768158e-02
3.109348565340042114e-02
3.189051896333694458e-02
3.163351863622665405e-02
3.043971955776214600e-02
2.846933342516422272e-02
2.591485716402530670e-02
2.298370003700256348e-02
1.987923868000507355e-02
1.678518950939178467e-02
1.385267265141010284e-02
1.118958555161952972e-02
8.854857645928859711e-03
6.858750246465206146e-03
5.167620256543159485e-03
3.713147714734077454e-03
2.407799474895000458e-03
1.162936910986900330e-03
-9.764963760972023010e-05
-1.431555021554231644e-03
-2.876888494938611984e-03
-4.452187567949295044e-03
-6.155017297714948654e-03
-7.962497882544994354e-03
-9.835229255259037018e-03
-1.172282546758651733e-02
-1.357121299952268600e-02
-1.533111184835433960e-02
-1.696486584842205048e-02
-1.844999752938747406e-02
-1.977762766182422638e-02
-2.094673924148082733e-02
-2.196047827601432800e-02
-2.282405644655227661e-02
-2.353703975677490234e-02
-2.407821267843246460e-02
-2.438865415751934052e-02
-2.436096034944057465e-02
-2.384182810783386230e-02
-2.265361510217189789e-02
-2.063226886093616486e-02
-1.766925863921642303e-02
-1.374581269919872284e-02
-8.950173854827880859e-03
-3.470829688012599945e-03
2.428329549729824066e-03
8.437130600214004517e-03
1.422885246574878693e-02
1.949361339211463928e-02
2.397013828158378601e-02
2.746631577610969543e-02
2.986738644540309906e-02
3.113599121570587158e-02
3.130688518285751343e-02
3.047788143157958984e-02
2.879598923027515411e-02
2.644031681120395660e-02
2.360659465193748474e-02
2.049363590776920319e-02
1.728939078748226166e-02
1.415621489286422729e-02
1.121846400201320648e-02
8.555898442864418030e-03
6.202538497745990753e-03
4.149682819843292236e-03
2.352445386350154877e-03
7.411204278469085693e-04
-7.630912587046623230e-04
-2.235825639218091965e-03
-3.742961678653955460e-03
-5.333737470209598541e-03
-7.034888956695795059e-03
-8.849451318383216858e-03
-1.075813174247741699e-02
-1.272305287420749664e-02
-1.469491980969905853e-02
-1.662041991949081421e-02
-1.844805106520652771e-02
-2.013443037867546082e-02
-2.164927870035171509e-02
-2.297711372375488281e-02
-2.411722391843795776e-02
-2.508021704852581024e-02
-2.588212862610816956e-02
-2.653967775404453278e-02
-2.706476673483848572e-02
-2.746010385453701019e-02
-2.772158756852149963e-02
-2.784458734095096588e-02
-2.782893553376197815e-02
-2.768147364258766174e-02
-2.741527184844017029e-02
-2.704492770135402679e-02
-2.658063918352127075e-02
-2.602224051952362061e-02
-2.534626796841621399e-02
-2.448490262031555176e-02
-2.331239357590675354e-02
-2.165098488330841064e-02
-1.929537579417228699e-02
-1.605413481593132019e-02
-1.179998554289340973e-02
-6.509833037853240967e-03
-2.819485962390899658e-04
6.668902933597564697e-03
1.403458975255489349e-02
2.145179547369480133e-02
2.854768559336662292e-02
3.498184680938720703e-02
4.047659039497375488e-02
4.483436793088912964e-02
4.794543981552124023e-02
4.978684335947036743e-02
5.041126161813735962e-02
4.993025213479995728e-02
4.849813133478164673e-02
4.629605263471603394e-02
4.351619258522987366e-02
4.034956544637680054e-02
3.697713837027549744e-02
3.355999290943145752e-02
3.022913075983524323e-02
2.708012238144874573e-02
2.417304180562496185e-02
2.153215743601322174e-02
1.914389431476593018e-02
1.695902831852436066e-02
1.490426715463399887e-02
1.289828494191169739e-02
1.086390484124422073e-02
8.736159652471542358e-03
6.469408981502056122e-03
4.043447785079479218e-03
1.465992070734500885e-03
-1.229353249073028564e-03
-3.987576346844434738e-03
-6.739806383848190308e-03
-9.415240027010440826e-03
-1.195294037461280823e-02
-1.430881116539239883e-02
-1.645741239190101624e-02
-1.838866621255874634e-02
-2.010154724121093750e-02
-2.160026691854000092e-02
-2.289404347538948059e-02
-2.399579808115959167e-02
-2.491832897067070007e-02
-2.566946111619472504e-02
-2.624764665961265564e-02
-2.664064615964889526e-02
-2.682719007134437561e-02
-2.678134664893150330e-02
-2.647991478443145752e-02
-2.590923197567462921e-02
-2.506915293633937836e-02
-2.397623844444751740e-02
-2.266505174338817596e-02
-2.118429541587829590e-02
-1.959066838026046753e-02
-1.794459298253059387e-02
-1.630528829991817474e-02
-1.472103036940097809e-02
-1.321509480476379395e-02
-1.176941208541393280e-02
-1.031025312840938568e-02
-8.705940097570419312e-03
-6.783030927181243896e-03
-4.357551224529743195e-03
-1.275160349905490875e-03
2.548051998019218445e-03
7.096479646861553192e-03
1.224595680832862854e-02
1.777402684092521667e-02
2.338714338839054108e-02
2.876203693449497223e-02
3.359057754278182983e-02
3.761594742536544800e-02
4.065466299653053284e-02
4.260414093732833862e-02
4.343914240598678589e-02
4.320142418146133423e-02
4.198549687862396240e-02
3.992369398474693298e-02
3.717246651649475098e-02
3.389922529458999634e-02
3.027114644646644592e-02
2.644839882850646973e-02
2.257965505123138428e-02
1.879609934985637665e-02
1.520325616002082825e-02
1.187394931912422180e-02
8.846033364534378052e-03
6.124125793576240540e-03
3.683472052216529846e-03
1.476457342505455017e-03
-5.596950650215148926e-04
-2.495678141713142395e-03
-4.401518031954765320e-03
-6.336837075650691986e-03
-8.342638611793518066e-03
-1.043533906340599060e-02
-1.260494533926248550e-02
-1.481922995299100876e-02
-1.703135669231414795e-02
-1.918831095099449158e-02
-2.123898267745971680e-02
-2.314111404120922089e-02
-2.486660890281200409e-02
-2.640271373093128204e-02
-2.774849534034729004e-02
-2.891076356172561646e-02
-2.990200370550155640e-02
-3.073814883828163147e-02
-3.143405169248580933e-02
-3.200047835707664490e-02
-3.244474530220031738e-02
-3.277068585157394409e-02
-3.297770395874977112e-02
-3.306076675653457642e-02
-3.301168978214263916e-02
-3.282357007265090942e-02
-3.249538689851760864e-02
-3.203254938125610352e-02
-3.144610300660133362e-02
-3.075171262025833130e-02
-2.996429800987243652e-02
-2.908599749207496643e-02
-2.808942273259162903e-02
-2.690035849809646606e-02
-2.538872510194778442e-02
-2.337776124477386475e-02
-2.067235112190246582e-02
-1.709943823516368866e-02
-1.255069114267826080e-02
-7.017364725470542908e-03
-6.083436310291290283e-04
6.454434245824813843e-03
1.385949924588203430e-02
2.124224789440631866e-02
2.823137119412422180e-02
3.449425846338272095e-02
3.976812213659286499e-02
4.387507587671279907e-02
4.672532901167869568e-02
4.831253364682197571e-02
4.870401322841644287e-02
4.802707582712173462e-02
4.645328223705291748e-02
4.418150335550308228e-02
4.142086207866668701e-02
3.837483003735542297e-02
3.522662073373794556e-02
3.212872892618179321e-02
2.919742092490196228e-02
2.650953270494937897e-02
2.410194091498851776e-02
2.197422273457050323e-02
2.009298279881477356e-02
1.839770190417766571e-02
1.681020669639110565e-02
1.524768676608800888e-02
1.363477669656276703e-02
1.191151328384876251e-02
1.003747060894966125e-02
7.993829436600208282e-03
5.784643813967704773e-03
3.434625454246997833e-03
9.823911823332309723e-04
-1.525501953437924385e-03
-4.037518054246902466e-03
-6.501147523522377014e-03
-8.868245407938957214e-03
-1.109837740659713745e-02
-1.316088903695344925e-02
-1.503683719784021378e-02
-1.671965233981609344e-02
-1.821309886872768402e-02
-1.952556706964969635e-02
-2.066434361040592194e-02
-2.163498848676681519e-02
-2.244514971971511841e-02
-2.310772053897380829e-02
-2.364044263958930969e-02
-2.406395412981510162e-02
-2.439979277551174164e-02
-2.466751076281070709e-02
-2.487959153950214386e-02
-2.503097429871559143e-02
-2.508332021534442902e-02
-2.494997717440128326e-02
-2.448971942067146301e-02
-2.351723425090312958e-02
-2.183260396122932434e-02
-1.926159486174583435e-02
-1.569539494812488556e-02
-1.112231053411960602e-02
-5.644168704748153687e-03
5.285693332552909851e-04
7.100227288901805878e-03
1.372422650456428528e-02
2.004225552082061768e-02
2.572218701243400574e-02
3.049010224640369415e-02
3.415340185165405273e-02
3.661058098077774048e-02
3.784801810979843140e-02
3.792914748191833496e-02
3.697934001684188843e-02
3.516919538378715515e-02
3.269765526056289673e-02
2.977366372942924500e-02
2.659926377236843109e-02
2.335745468735694885e-02
2.020082063972949982e-02
1.723960414528846741e-02
1.453629694879055023e-02
1.211122982203960419e-02
9.953718632459640503e-03
8.029967546463012695e-03
6.286671385169029236e-03
4.655729047954082489e-03
3.063271753489971161e-03
1.441394910216331482e-03
-2.627102658152580261e-04
-2.081970684230327606e-03
-4.026851616799831390e-03
-6.087040528655052185e-03
-8.237181231379508972e-03
-1.044258475303649902e-02
-1.266340725123882294e-02
-1.485586445778608322e-02
-1.697311177849769592e-02
-1.896993815898895264e-02
-2.080840617418289185e-02
-2.246061712503433228e-02
-2.390821278095245361e-02
-2.514118514955043793e-02
-2.615990489721298218e-02
-2.697819843888282776e-02
-2.762025780975818634e-02
-2.811237797141075134e-02
-2.847672067582607269e-02
-2.872734144330024719e-02
-2.886757440865039825e-02
-2.889297343790531158e-02
-2.879942208528518677e-02
-2.858899347484111786e-02
-2.826931700110435486e-02
-2.784990146756172180e-02
-2.733902446925640106e-02
-2.673884481191635132e-02
-2.603488229215145111e-02
-2.518036216497421265e-02
-2.408055774867534637e-02
-2.258922532200813293e-02
-2.052579261362552643e-02
-1.770818792283535004e-02
-1.399330608546733856e-02
-9.316517040133476257e-03
-3.718093037605285645e-03
2.649484202265739441e-03
9.533002041280269623e-03
1.660694554448127747e-02
2.351299487054347992e-02
2.990287169814109802e-02
3.547602891921997070e-02
4.000443592667579651e-02
4.334391281008720398e-02
4.543571919202804565e-02
4.630086570978164673e-02
4.602918773889541626e-02
4.476477950811386108e-02
4.268884286284446716e-02
4.000185057520866394e-02
3.690817952156066895e-02
3.360309451818466187e-02
3.026005439460277557e-02
2.702036686241626740e-02
2.398743480443954468e-02
2.122445963323116302e-02
1.875351741909980774e-02
1.655771397054195404e-02
1.458963938057422638e-02
1.278420165181159973e-02
1.107067335397005081e-02
9.381405077874660492e-03
7.657486945390701294e-03
5.853907205164432526e-03
3.944359719753265381e-03
1.921584364026784897e-03
-2.072034403681755066e-04
-2.424731850624084473e-03
-4.704837221652269363e-03
-7.013320922851562500e-03
-9.310861118137836456e-03
-1.155613176524639130e-02
-1.370939798653125763e-02
-1.573699340224266052e-02
-1.761322282254695892e-02
-1.931929029524326324e-02
-2.084308117628097534e-02
-2.217993512749671936e-02
-2.333158254623413086e-02
-2.430401556193828583e-02
-2.510663121938705444e-02
-2.575185149908065796e-02
-2.625394612550735474e-02
-2.662621252238750458e-02
-2.687722072005271912e-02
-2.701096422970294952e-02
-2.703173831105232239e-02
-2.694702520966529846e-02
-2.676661871373653412e-02
-2.650138735771179199e-02
-2.615971863269805908e-02
-2.573744207620620728e-02
-2.520269155502319336e-02
-2.448071725666522980e-02
-2.344632707536220551e-02
-2.193362824618816376e-02
-1.976177841424942017e-02
-1.676654443144798279e-02
-1.283572427928447723e-02
-7.945619523525238037e-03
-2.184042707085609436e-03
4.249569028615951538e-03
1.106396224349737167e-02
1.790995150804519653e-02
2.442266047000885010e-02
3.026386909186840057e-02
3.515540808439254761e-02
3.889983892440795898e-02
4.138931632041931152e-02
4.260488972067832947e-02
4.261028766632080078e-02
4.154001176357269287e-02
3.958000987768173218e-02
3.694676607847213745e-02
3.386939689517021179e-02
3.057165443897247314e-02
2.725400403141975403e-02
2.408098801970481873e-02
2.117353491485118866e-02
1.860296912491321564e-02
1.638836599886417389e-02
1.449925266206264496e-02
1.286515593528747559e-02
1.139329001307487488e-02
9.987726807594299316e-03
8.562522940337657928e-03
7.049340754747390747e-03
5.401170812547206879e-03
3.592817112803459167e-03
1.620388589799404144e-03
-5.007172003388404846e-04
-2.740346826612949371e-03
-5.057624075561761856e-03
-7.404221221804618835e-03
-9.729196317493915558e-03
-1.198317110538482666e-02
-1.412125304341316223e-02
-1.610725000500679016e-02
-1.791770011186599731e-02
-1.954209804534912109e-02
-2.097938209772109985e-02
-2.223456092178821564e-02
-2.331629768013954163e-02
-2.423460781574249268e-02
-2.500057592988014221e-02
-2.562590129673480988e-02
-2.611934952437877655e-02
-2.648480609059333801e-02
-2.672441117465496063e-02
-2.684226073324680328e-02
-2.684443816542625427e-02
-2.673384919762611389e-02
-2.649679593741893768e-02
-2.608324587345123291e-02
-2.539168484508991241e-02
-2.426839061081409454e-02
-2.252576127648353577e-02
-1.997805200517177582e-02
-1.648516394197940826e-02
-1.199219003319740295e-02
-6.554303690791130066e-03
-3.403825685381889343e-04
6.384868174791336060e-03
1.329319272190332413e-02
2.003056928515434265e-02
2.625519782304763794e-02
3.167200833559036255e-02
3.605769574642181396e-02
3.927211463451385498e-02
4.125797748565673828e-02
4.203302785754203796e-02
4.167836904525756836e-02
4.032554477453231812e-02
3.814287483692169189e-02
3.532359004020690918e-02
3.207438066601753235e-02
2.860014885663986206e-02
2.508881315588951111e-02
2.169920131564140320e-02
1.855015195906162262e-02
1.571350917220115662e-02
1.321305893361568451e-02
1.102809607982635498e-02
9.101616218686103821e-03
7.351830601692199707e-03
5.684922449290752411e-03
4.008937627077102661e-03
2.247286960482597351e-03
3.478685393929481506e-04
-1.713998615741729736e-03
-3.936015069484710693e-03
-6.291459314525127411e-03
-8.734853006899356842e-03
-1.120881736278533936e-02
-1.365150418132543564e-02
-1.600543595850467682e-02
-1.822531409561634064e-02
-2.028127014636993408e-02
-2.215794101357460022e-02
-2.385178580880165100e-02
-2.536604367196559906e-02
-2.670420520007610321e-02
-2.786653675138950348e-02
-2.885138988494873047e-02
-2.965841256082057953e-02
-3.028994798660278320e-02
-3.075009956955909729e-02
-3.104444965720176697e-02
-3.118264488875865936e-02
-3.118111379444599152e-02
-3.106057271361351013e-02
-3.083947487175464630e-02
-3.052861243486404419e-02
-3.012459166347980499e-02
-2.959683723747730255e-02
-2.887107804417610168e-02
-2.781878970563411713e-02
-2.626263350248336792e-02
-2.400280348956584930e-02
-2.085781656205654144e-02
-1.670637167990207672e-02
-1.152107119560241699e-02
-5.389729514718055725e-03
1.481794752180576324e-03
8.789301849901676178e-03
1.616582274436950684e-02
2.322545833885669708e-02
2.961278893053531647e-02
3.504424914717674255e-02
3.932692855596542358e-02
4.235878214240074158e-02
4.412119463086128235e-02
4.466882720589637756e-02
4.411728680133819580e-02
4.262810572981834412e-02
4.039208963513374329e-02
3.761234134435653687e-02
3.448785096406936646e-02
3.120133280754089355e-02
2.791300974786281586e-02
2.475452609360218048e-02
2.181993424892425537e-02
1.915970072150230408e-02
1.678200252354145050e-02
1.465988717973232269e-02
1.274149678647518158e-02
1.096002012491226196e-02
9.242685511708259583e-03
7.519683800637722015e-03
5.731776356697082520e-03
3.835272975265979767e-03
1.804701983928680420e-03
-3.659054636955261230e-04
-2.663467079401016235e-03
-5.059269256889820099e-03
-7.513568270951509476e-03
-9.979784488677978516e-03
-1.240908540785312653e-02
-1.475469954311847687e-02
-1.697543077170848846e-02
-1.903830654919147491e-02
-2.091985195875167847e-02
-2.260621264576911926e-02
-2.409234270453453064e-02
-2.538062073290348053e-02
-2.647843211889266968e-02
-2.739389799535274506e-02
-2.813290990889072418e-02
-2.869948744773864746e-02
-2.909662574529647827e-02
-2.932796068489551544e-02
-2.940152958035469055e-02
-2.933114767074584961e-02
-2.913266792893409729e-02
-2.882036194205284119e-02
-2.840739302337169647e-02
-2.790699526667594910e-02
-2.732896246016025543e-02
-2.666661329567432404e-02
-2.587486431002616882e-02
-2.485150471329689026e-02
-2.343679964542388916e-02
-2.143508009612560272e-02
-1.864983327686786652e-02
-1.492317952215671539e-02
-1.017431914806365967e-02
-4.429589956998825073e-03
2.165172249078750610e-03
9.352814406156539917e-03
1.679063215851783752e-02
2.409083582460880280e-02
3.087059408426284790e-02
3.679907321929931641e-02
4.162739217281341553e-02
4.519952461123466492e-02
4.745165258646011353e-02
4.840514436364173889e-02
4.815524816513061523e-02
4.685662686824798584e-02
4.470658302307128906e-02
4.192659631371498108e-02
3.874398395419120789e-02
3.537669032812118530e-02
3.201851993799209595e-02
2.882368117570877075e-02
2.589758299291133881e-02
2.329591102898120880e-02
2.102758735418319702e-02
1.906047575175762177e-02
1.733001135289669037e-02
1.574905961751937866e-02
1.421890780329704285e-02
1.264321990311145782e-02
1.094323489814996719e-02
9.068060666322708130e-03
6.995461881160736084e-03
4.725990816950798035e-03
2.277652733027935028e-03
-3.161877393722534180e-04
-3.008531406521797180e-03
-5.741925444453954697e-03
-8.452638052403926849e-03
-1.107648015022277832e-02
-1.355606596916913986e-02
-1.584659144282341003e-02
-1.791845262050628662e-02
-1.975707709789276123e-02
-2.136089652776718140e-02
-2.273934334516525269e-02
-2.391063794493675232e-02
-2.489741332828998566e-02
-2.572206035256385803e-02
-2.640414424240589142e-02
-2.695894241333007812e-02
-2.739740721881389618e-02
-2.772787772119045258e-02
-2.795726805925369263e-02
-2.809131518006324768e-02
-2.813456580042839050e-02
-2.808863669633865356e-02
-2.794685959815979004e-02
-2.768410928547382355e-02
-2.724096551537513733e-02
-2.650571987032890320e-02
-2.530849538743495941e-02
-2.344152145087718964e-02
-2.070042304694652557e-02
-1.693129725754261017e-02
-1.207378506660461426e-02
-6.189992651343345642e-03
5.318773910403251648e-04
7.798966020345687866e-03
1.525013521313667297e-02
2.249888330698013306e-02
2.917606942355632782e-02
3.496666997671127319e-02
3.963788226246833801e-02
4.305344820022583008e-02
4.517005383968353271e-02
4.602286219596862793e-02
4.571032151579856873e-02
4.437952488660812378e-02
4.220993444323539734e-02
3.939812257885932922e-02
3.614569827914237976e-02
3.264792263507843018e-02
2.908207103610038757e-02
2.559843286871910095e-02
2.231365256011486053e-02
1.930224895477294922e-02
1.658975519239902496e-02
1.415553130209445953e-02
1.194418780505657196e-02
9.879974648356437683e-03
7.880661636590957642e-03
5.868540145456790924e-03
3.778983838856220245e-03
1.567058265209197998e-03
-7.893368601799011230e-04
-3.289210610091686249e-03
-5.909981206059455872e-03
-8.611818775534629822e-03
-1.134377997368574142e-02
-1.404980476945638657e-02
-1.667616516351699829e-02
-1.917903684079647064e-02
-2.152618393301963806e-02
-2.369293011724948883e-02
-2.565993554890155792e-02
-2.741623856127262115e-02
-2.896212413907051086e-02
-3.030693158507347107e-02
-3.146404772996902466e-02
-3.244663774967193604e-02
-3.326534479856491089e-02
-3.392674773931503296e-02
-3.443219512701034546e-02
-3.478028625249862671e-02
-3.497176617383956909e-02
-3.501183539628982544e-02
-3.490962088108062744e-02
-3.467723727226257324e-02
-3.432869166135787964e-02
-3.387774899601936340e-02
-3.333329409360885620e-02
-3.269051015377044678e-02
-3.191672265529632568e-02
-3.093513101339340210e-02
-2.961402013897895813e-02
-2.777024731040000916e-02
-2.519384026527404785e-02
-2.169034257531166077e-02
-1.712770015001296997e-02
-1.147358492016792297e-02
-4.814280197024345398e-03
2.646015025675296783e-03
1.060158573091030121e-02
1.867518946528434753e-02
2.646033652126789093e-02
3.356912732124328613e-02
3.967472165822982788e-02
4.454161599278450012e-02
4.804096370935440063e-02
5.014850944280624390e-02
5.092857778072357178e-02
5.051247030496597290e-02
4.907721653580665588e-02
4.682749882340431213e-02
4.397957399487495422e-02
4.074536263942718506e-02
3.731792420148849487e-02
3.386115282773971558e-02
3.050367347896099091e-02
2.733430825173854828e-02
2.439983561635017395e-02
2.170847356319427490e-02
1.923892647027969360e-02
1.695060543715953827e-02
1.479175873100757599e-02
1.270435005426406860e-02
1.062710117548704147e-02
8.501121774315834045e-03
6.278946064412593842e-03
3.932106308639049530e-03
1.454622019082307816e-03
-1.137751154601573944e-03
-3.812673501670360565e-03
-6.526472046971321106e-03
-9.227735921740531921e-03
-1.186297833919525146e-02
-1.438334304839372635e-02
-1.674882881343364716e-02
-1.893023960292339325e-02
-2.090951614081859589e-02
-2.267801016569137573e-02
-2.423451654613018036e-02
-2.558515779674053192e-02
-2.674303390085697174e-02
-2.772598341107368469e-02
-2.855351939797401428e-02
-2.924234420061111450e-02
-2.980107255280017853e-02
-3.022878989577293396e-02
-3.051920235157012939e-02
-3.066726215183734894e-02
-3.067375160753726959e-02
-3.054506331682205200e-02
-3.029039502143859863e-02
-2.992066740989685059e-02
-2.944813668727874756e-02
-2.888328209519386292e-02
-2.822964265942573547e-02
-2.747499197721481323e-02
-2.657438442111015320e-02
-2.543072402477264404e-02
-2.388728410005569458e-02
-2.174215763807296753e-02
-1.878542453050613403e-02
-1.485026255249977112e-02
-9.860377758741378784e-03
-3.858296200633049011e-03
2.989344298839569092e-03
1.040801219642162323e-02
1.804770901799201965e-02
2.552298083901405334e-02
3.245595097541809082e-02
3.851847350597381592e-02
4.346503317356109619e-02
4.714842513203620911e-02
4.951789230108261108e-02
5.060710757970809937e-02
5.051793158054351807e-02
4.940275102853775024e-02
4.744891449809074402e-02
4.486550763249397278e-02
4.186803102493286133e-02
3.866090625524520874e-02
3.542286902666091919e-02
3.229580819606781006e-02
2.937685139477252960e-02
2.671779505908489227e-02
2.433145232498645782e-02
2.219971641898155212e-02
2.028037421405315399e-02
1.851377822458744049e-02
1.683339104056358337e-02
1.517873629927635193e-02
1.350301969796419144e-02
1.177498605102300644e-02
9.980550035834312439e-03
8.123456500470638275e-03
6.220641545951366425e-03
4.295505583286285400e-03
2.374322153627872467e-03
4.832423292100429535e-04
-1.355592161417007446e-03
-3.125967923551797867e-03
-4.819113295525312424e-03
-6.435197778046131134e-03
-7.981647737324237823e-03
-9.469864889979362488e-03
-1.091267354786396027e-02
-1.232112757861614227e-02
-1.370224729180335999e-02
-1.505957264453172684e-02
-1.639296300709247589e-02
-1.769677549600601196e-02
-1.896074786782264709e-02
-2.017411962151527405e-02
-2.132687717676162720e-02
-2.240388840436935425e-02
-2.337427437305450439e-02
-2.417781576514244080e-02
-2.470997534692287445e-02
-2.481394633650779724e-02
-2.429036051034927368e-02
-2.292748168110847473e-02
-2.054486609995365143e-02
-1.703873276710510254e-02
-1.241784729063510895e-02
-6.819808855652809143e-03
-5.029817111790180206e-04
6.181955337524414062e-03
1.283337082713842392e-02
1.904563605785369873e-02
2.445474825799465179e-02
2.877411246299743652e-02
3.181410580873489380e-02
3.348585963249206543e-02
3.379244729876518250e-02
3.281404078006744385e-02
3.069503232836723328e-02
2.763244882225990295e-02
2.385974302887916565e-02
1.962617039680480957e-02
1.517711952328681946e-02
1.073688454926013947e-02
6.492372602224349976e-03
2.580918371677398682e-03
-9.146761149168014526e-04
-3.965297713875770569e-03
-6.588937714695930481e-03
-8.840633556246757507e-03
-1.080312486737966537e-02
-1.257459260523319244e-02
-1.425220351666212082e-02
-1.591838337481021881e-02
-1.763239875435829163e-02
-1.942595094442367554e-02
-2.130383998155593872e-02
-2.324935980141162872e-02
-2.523146197199821472e-02
-2.721092477440834045e-02
-2.914407104253768921e-02
-3.098550625145435333e-02
-3.269206732511520386e-02
-3.422690555453300476e-02
-3.556175157427787781e-02
-3.667681291699409485e-02
-3.755945712327957153e-02
-3.820447623729705811e-02
-3.861507028341293335e-02
-3.880229592323303223e-02
-3.878508508205413818e-02
-3.859061002731323242e-02
-3.825093060731887817e-02
-3.779584541916847229e-02
-3.724645078182220459e-02
-3.660970181226730347e-02
-3.586674109101295471e-02
-3.495224937796592712e-02
-3.373844921588897705e-02
-3.204000368714332581e-02
-2.964171767234802246e-02
-2.634161710739135742e-02
-2.199896425008773804e-02
-1.657404005527496338e-02
-1.014864444732666016e-02
-2.924066036939620972e-03
4.800123162567615509e-03
1.266099046915769577e-02
2.027468010783195496e-02
2.727831155061721802e-02
3.336544334888458252e-02
3.831139579415321350e-02
4.198398441076278687e-02
4.433986917138099670e-02
4.541388154029846191e-02
4.530774801969528198e-02
4.417794197797775269e-02
4.222031310200691223e-02
3.965171426534652710e-02
3.669119253754615784e-02
3.354416042566299438e-02
3.038994409143924713e-02
2.737142145633697510e-02
2.458759956061840057e-02
2.209126949310302734e-02
1.989174634218215942e-02
1.796071603894233704e-02
1.624050736427307129e-02
1.465442031621932983e-02
1.311868987977504730e-02
1.155415177345275879e-02
9.894744493067264557e-03
8.094184100627899170e-03
6.131615489721298218e-03
4.012492019683122635e-03
1.764210406690835953e-03
-5.695377476513385773e-04
-2.933516167104244232e-03
-5.265223328024148941e-03
-7.500750944018363953e-03
-9.584054350852966309e-03
-1.147576980292797089e-02
-1.315514557063579559e-02
-1.461536809802055359e-02
-1.585790328681468964e-02
-1.688929833471775055e-02
-1.772100292146205902e-02
-1.837098412215709686e-02
-1.886282302439212799e-02
-1.922155916690826416e-02
-1.947039552032947540e-02
-1.962887123227119446e-02
-1.971134170889854431e-02
-1.972411572933197021e-02
-1.965637132525444031e-02
-1.946391910314559937e-02
-1.905310526490211487e-02
-1.827499270439147949e-02
-1.693782582879066467e-02
-1.483732834458351135e-02
-1.179776340723037720e-02
-7.715506479144096375e-03
-2.592539414763450623e-03
3.449637442827224731e-03
1.017738506197929382e-02
1.727283932268619537e-02
2.437312901020050049e-02
3.110892511904239655e-02
3.713967651128768921e-02
4.218417778611183167e-02
4.604110494256019592e-02
4.859768971800804138e-02
4.982965439558029175e-02
4.979351907968521118e-02
4.861147701740264893e-02
4.645625874400138855e-02
4.353944584727287292e-02
4.009593278169631958e-02
3.636392205953598022e-02
3.256556391716003418e-02
2.888888120651245117e-02
2.547303587198257446e-02
2.240056544542312622e-02
1.969713345170021057e-02
1.733764819800853729e-02
1.525744795799255371e-02
1.336681470274925232e-02
1.156581193208694458e-02
9.757321327924728394e-03
7.858921773731708527e-03
5.812590941786766052e-03
3.588991239666938782e-03
1.186222769320011139e-03
-1.374552026391029358e-03
-4.053641576319932938e-03
-6.796760950237512589e-03
-9.540804661810398102e-03
-1.222260016947984695e-02
-1.478820666670799255e-02
-1.719818077981472015e-02
-1.942656561732292175e-02
-2.145657688379287720e-02
-2.327757515013217926e-02
-2.488458529114723206e-02
-2.627855166792869568e-02
-2.746588364243507385e-02
-2.845692634582519531e-02
-2.926487661898136139e-02
-2.990736067295074463e-02
-3.040799498558044434e-02
-3.079256229102611542e-02
-3.107805550098419189e-02
-3.125496953725814819e-02
-3.126677125692367554e-02
-3.099505417048931122e-02
-3.025877662003040314e-02
-2.883618883788585663e-02
-2.650893665850162506e-02
-2.311231940984725952e-02
-1.857720501720905304e-02
-1.295653916895389557e-02
-6.430853158235549927e-03
7.074270397424697876e-04
8.087565191090106964e-03
1.530695240944623947e-02
2.198018133640289307e-02
2.777930162847042084e-02
3.245878964662551880e-02
3.586592525243759155e-02
3.794012591242790222e-02
3.870468959212303162e-02
3.825538605451583862e-02
3.674675151705741882e-02
3.437480330467224121e-02
3.135953098535537720e-02
2.792871370911598206e-02
2.430030331015586853e-02
2.066541090607643127e-02
1.717513613402843475e-02
1.393140107393264771e-02
1.098469085991382599e-02
8.340848609805107117e-03
5.971122533082962036e-03
3.820396959781646729e-03
1.817053183913230896e-03
-1.147389411926269531e-04
-2.045148052275180817e-03
-4.031559452414512634e-03
-6.112017668783664703e-03
-8.301102556288242340e-03
-1.059106457978487015e-02
-1.295720506459474564e-02
-1.536389999091625214e-02
-1.776802167296409607e-02
-2.012050338089466095e-02
-2.236996032297611237e-02
-2.446969598531723022e-02
-2.638532966375350952e-02
-2.809897251427173615e-02
-2.960810624063014984e-02
-3.091941028833389282e-02
-3.204112127423286438e-02
-3.298030793666839600e-02
-3.374399244785308838e-02
-3.433836996555328369e-02
-3.476720675826072693e-02
-3.503270074725151062e-02
-3.513702750205993652e-02
-3.508360683917999268e-02
-3.487968444824218750e-02
-3.453780710697174072e-02
-3.407411649823188782e-02
-3.350642323493957520e-02
-3.285109996795654297e-02
-3.211545571684837341e-02
-3.128828853368759155e-02
-3.032793849706649780e-02
-2.914610877633094788e-02
-2.759765461087226868e-02
-2.548878639936447144e-02
-2.260510623455047607e-02
-1.875439286231994629e-02
-1.381373777985572815e-02
-7.766362279653549194e-03
-7.187575101852416992e-04
7.101925089955329895e-03
1.536855474114418030e-02
2.369148656725883484e-02
3.166601806879043579e-02
3.891930729150772095e-02
4.514663293957710266e-02
5.013112351298332214e-02
5.374942719936370850e-02
5.596841871738433838e-02
5.683541297912597656e-02
5.646457895636558533e-02
5.502119287848472595e-02
5.270401760935783386e-02
4.972705245018005371e-02
4.630285501480102539e-02
4.262901470065116882e-02
3.887914493680000305e-02
3.519842401146888733e-02
3.169980645179748535e-02
2.845795266330242157e-02
2.550378441810607910e-02
2.282407693564891815e-02
2.036870270967483521e-02
1.806428842246532440e-02
1.582866348326206207e-02
1.358137279748916626e-02
1.125232037156820297e-02
8.792210370302200317e-03
6.179806776344776154e-03
3.420785069465637207e-03
5.427733995020389557e-04
-2.409912180155515671e-03
-5.383448209613561630e-03
-8.321484550833702087e-03
-1.116925850510597229e-02
-1.387728936970233917e-02
-1.640675961971282959e-02
-1.873365789651870728e-02
-2.084788121283054352e-02
-2.274794876575469971e-02
-2.443647012114524841e-02
-2.591997385025024414e-02
-2.720952033996582031e-02
-2.831823192536830902e-02
-2.925925143063068390e-02
-3.004683554172515869e-02
-3.069694340229034424e-02
-3.122439049184322357e-02
-3.163913264870643616e-02
-3.194411098957061768e-02
-3.213543817400932312e-02
-3.220612555742263794e-02
-3.214990347623825073e-02
-3.196235001087188721e-02
-3.164103627204895020e-02
-3.118539229035377502e-02
-3.059750422835350037e-02
-2.988517284393310547e-02
-2.906314656138420105e-02
-2.814811840653419495e-02
-2.714920789003372192e-02
-2.605679631233215332e-02
-2.482645213603973389e-02
-2.336030080914497375e-02
-2.150077372789382935e-02
-1.904731243848800659e-02
-1.579337567090988159e-02
-1.157368905842304230e-02
-6.307549774646759033e-03
-2.615712583065032959e-05
7.118590176105499268e-03
1.486331596970558167e-02
2.286112681031227112e-02
3.072355315089225769e-02
3.806684538722038269e-02
4.455367475748062134e-02
4.992373660206794739e-02
5.401060357689857483e-02
5.674499273300170898e-02
5.814520269632339478e-02
5.829927697777748108e-02
5.734672769904136658e-02
5.546392500400543213e-02
5.285014212131500244e-02
4.971166700124740601e-02
4.624861478805541992e-02
4.264812171459197998e-02
3.907790035009384155e-02
3.567406162619590759e-02
3.252832591533660889e-02
2.968239225447177887e-02
2.713034115731716156e-02
2.482600882649421692e-02
2.269376814365386963e-02
2.064322866499423981e-02
1.858499646186828613e-02
1.644235104322433472e-02
1.415718160569667816e-02
1.169277913868427277e-02
9.036544710397720337e-03
6.200722418725490570e-03
3.218159079551696777e-03
1.355702988803386688e-04
-2.992997877299785614e-03
-6.112327333539724350e-03
-9.169962257146835327e-03
-1.211800333112478256e-02
-1.491494476795196533e-02
-1.752639748156070709e-02
-1.992594078183174133e-02
-2.209937013685703278e-02
-2.404636144638061523e-02
-2.577412500977516174e-02
-2.729067206382751465e-02
-2.860436588525772095e-02
-2.972606196999549866e-02
-3.066931851208209991e-02
-3.144934400916099548e-02
-3.208229690790176392e-02
-3.258386254310607910e-02
-3.296704962849617004e-02
-3.324101865291595459e-02
-3.341086208820343018e-02
-3.347759693861007690e-02
-3.343948349356651306e-02
-3.329411894083023071e-02
-3.303943574428558350e-02
-3.267208859324455261e-02
-3.217964246869087219e-02
-3.152347356081008911e-02
-3.061900660395622253e-02
-2.932821959257125854e-02
-2.747193351387977600e-02
-2.485713362693786621e-02
-2.131439931690692902e-02
-1.674023084342479706e-02
-1.113332062959671021e-02
-4.613239318132400513e-03
2.585278823971748352e-03
1.013890374451875687e-02
1.767271757125854492e-02
2.480224892497062683e-02
3.117669373750686646e-02
3.651481866836547852e-02
4.062541574239730835e-02
4.341191425919532776e-02
4.486849159002304077e-02
4.507108405232429504e-02
4.415997862815856934e-02
4.231613501906394958e-02
3.974181786179542542e-02
3.665044531226158142e-02
3.325756639242172241e-02
2.976623550057411194e-02
2.634983696043491364e-02
2.313843555748462677e-02
2.021193504333496094e-02
1.759948208928108215e-02
1.528393104672431946e-02
1.321213506162166595e-02
1.130972616374492645e-02
9.494135156273841858e-03
7.683429867029190063e-03
5.806133151054382324e-03
3.812372684478759766e-03
1.679710112512111664e-03
-5.886219441890716553e-04
-2.969440072774887085e-03
-5.426400341093540192e-03
-7.915765047073364258e-03
-1.039012707769870758e-02
-1.280149165540933609e-02
-1.510523632168769836e-02
-1.726520992815494537e-02
-1.925779506564140320e-02
-2.107207849621772766e-02
-2.270596660673618317e-02
-2.416148595511913300e-02
-2.544307336211204529e-02
-2.655787020921707153e-02
-2.751507051289081573e-02
-2.832448855042457581e-02
-2.899480238556861877e-02
-2.953142859041690826e-02
-2.993661910295486450e-02
-3.021294437348842621e-02
-3.036662004888057709e-02
-3.040716983377933502e-02
-3.034306317567825317e-02
-3.017684072256088257e-02
-2.990496344864368439e-02
-2.952168509364128113e-02
-2.902249805629253387e-02
-2.840636670589447021e-02
-2.767808735370635986e-02
-2.684906125068664551e-02
-2.593388780951499939e-02
-2.494365535676479340e-02
-2.387624979019165039e-02
-2.269966155290603638e-02
-2.133071050047874451e-02
-1.962445490062236786e-02
-1.738628372550010681e-02
-1.440423168241977692e-02
-1.049404032528400421e-02
-5.547339096665382385e-03
4.310496151447296143e-04
7.307965308427810669e-03
1.483181118965148926e-02
2.266282401978969574e-02
3.041538968682289124e-02
3.770378977060317993e-02
4.418314993381500244e-02
4.958036541938781738e-02
5.371284857392311096e-02
5.649377405643463135e-02
5.792497098445892334e-02
5.808330699801445007e-02
5.710611119866371155e-02
5.517527461051940918e-02
5.249875783920288086e-02
4.929179698228836060e-02
4.576133564114570618e-02
4.209564253687858582e-02
3.845616057515144348e-02
3.496788814663887024e-02
3.171135857701301575e-02
2.871970273554325104e-02
2.598221041262149811e-02
2.345559559762477875e-02
2.107738330960273743e-02
1.877642609179019928e-02
1.648306474089622498e-02
1.413848623633384705e-02
1.169991865754127502e-02
9.142100811004638672e-03
6.457209587097167969e-03
3.653920255601406097e-03
7.548648864030838013e-04
-2.206748351454734802e-03
-5.190049298107624054e-03
-8.148998953402042389e-03
-1.103459391742944717e-02
-1.379824988543987274e-02
-1.639746315777301788e-02
-1.880169659852981567e-02
-2.099481597542762756e-02
-2.297192998230457306e-02
-2.473389729857444763e-02
-2.628585696220397949e-02
-2.763960510492324829e-02
-2.881322801113128662e-02
-2.982764691114425659e-02
-3.070426732301712036e-02
-3.146208822727203369e-02
-3.211238235235214233e-02
-3.265526518225669861e-02
-3.308146446943283081e-02
-3.337785601615905762e-02
-3.353322297334671021e-02
-3.354148194193840027e-02
-3.340461105108261108e-02
-3.313576802611351013e-02
-3.275659680366516113e-02
-3.228840976953506470e-02
-3.174543008208274841e-02
-3.113106265664100647e-02
-3.042997606098651886e-02
-2.959731407463550568e-02
-2.855021692812442780e-02
-2.716189064085483551e-02
-2.526485361158847809e-02
-2.267253026366233826e-02
-1.921587064862251282e-02
-1.478353329002857208e-02
-9.355463087558746338e-03
-3.023095428943634033e-03
4.008164629340171814e-03
1.143709756433963776e-02
1.890316978096961975e-02
2.603278495371341705e-02
3.248421847820281982e-02
3.798173367977142334e-02
4.233373701572418213e-02
4.543631523847579956e-02
4.726888984441757202e-02
4.788535088300704956e-02
4.740054905414581299e-02
4.597382992506027222e-02
4.379224404692649841e-02
4.105699062347412109e-02
3.797140344977378845e-02
3.472580760717391968e-02
3.148357570171356201e-02
2.837448380887508392e-02
2.549176849424839020e-02
2.288834564387798309e-02
2.057453989982604980e-02
1.852222532033920288e-02
1.667545177042484283e-02
1.496161706745624542e-02
1.329994015395641327e-02
1.160947605967521667e-02
9.818717837333679199e-03
7.874999195337295532e-03
5.749022588133811951e-03
3.435288555920124054e-03
9.531276300549507141e-04
-1.654428429901599884e-03
-4.327099770307540894e-03
-6.996714510023593903e-03
-9.597858414053916931e-03
-1.207785867154598236e-02
-1.440227590501308441e-02
-1.655383966863155365e-02
-1.852674968540668488e-02
-2.032067999243736267e-02
-2.193760871887207031e-02
-2.338226139545440674e-02
-2.466242387890815735e-02
-2.578627318143844604e-02
-2.676048688590526581e-02
-2.759031020104885101e-02
-2.827898785471916199e-02
-2.882718853652477264e-02
-2.923408336937427521e-02
-2.949929051101207733e-02
-2.962472103536128998e-02
-2.961721085011959076e-02
-2.949110232293605804e-02
-2.926699817180633545e-02
-2.896667458117008209e-02
-2.860510535538196564e-02
-2.817779220640659332e-02
-2.764360979199409485e-02
-2.690896950662136078e-02
-2.582379803061485291e-02
-2.419554628431797028e-02
-2.181826904416084290e-02
-1.851128228008747101e-02
-1.416082866489887238e-02
-8.753458037972450256e-03
-2.392405644059181213e-03
4.703782498836517334e-03
1.222134754061698914e-02
1.978936418890953064e-02
2.702654153108596802e-02
3.358598425984382629e-02
3.919057548046112061e-02
4.365348070859909058e-02
4.688145220279693604e-02
4.886408522725105286e-02
4.965797439217567444e-02
4.937335476279258728e-02
4.816335812211036682e-02
4.621253907680511475e-02
4.372221976518630981e-02
4.089298844337463379e-02
3.790989890694618225e-02
3.493342176079750061e-02
3.209142014384269714e-02
2.947064489126205444e-02
2.711165696382522583e-02
2.500913664698600769e-02
2.311736345291137695e-02
2.136018127202987671e-02
1.964369416236877441e-02
1.787000522017478943e-02
1.595110632479190826e-02
1.382037065923213959e-02
1.143870130181312561e-02
8.796738460659980774e-03
5.914773792028427124e-03
2.838287502527236938e-03
-3.707408905029296875e-04
-3.642581403255462646e-03
-6.907159462571144104e-03
-1.010192744433879852e-02
-1.317853294312953949e-02
-1.610384508967399597e-02
-1.885597035288810730e-02
-2.142121642827987671e-02
-2.379603683948516846e-02
-2.599031664431095123e-02
-2.802328951656818390e-02
-2.991355583071708679e-02
-3.167506679892539978e-02
-3.331997990608215332e-02
-3.485909849405288696e-02
-3.629849851131439209e-02
-3.763891756534576416e-02
-3.887960314750671387e-02
-4.002085328102111816e-02
-4.106160253286361694e-02
-4.199528694152832031e-02
-4.280999302864074707e-02
-4.349193722009658813e-02
-4.402468353509902954e-02
-4.438180476427078247e-02
-4.451499879360198975e-02
-4.433871805667877197e-02
-4.371727630496025085e-02
-4.246625676751136780e-02
-4.037518799304962158e-02
-3.724820911884307861e-02
-3.295045718550682068e-02
-2.744570001959800720e-02
-2.081674151122570038e-02
-1.326734200119972229e-02
-5.106247961521148682e-03
3.285533748567104340e-03
1.149870082736015320e-02
1.914189383387565613e-02
2.588173374533653259e-02
3.147075697779655457e-02
3.576051816344261169e-02
3.870006650686264038e-02
4.032434523105621338e-02
4.073829576373100281e-02
4.009955376386642456e-02
3.860158845782279968e-02
3.645665943622589111e-02
3.387865424156188965e-02
3.106813691556453705e-02
2.820071019232273102e-02
2.541805990040302277e-02
2.282098866999149323e-02
2.046461775898933411e-02
1.835857331752777100e-02
1.647434942424297333e-02
1.475745253264904022e-02
1.314019225537776947e-02
1.155339647084474564e-02
9.935596957802772522e-03
8.238188922405242920e-03
6.427983753383159637e-03
4.489642567932605743e-03
2.428378444164991379e-03
2.696318551898002625e-04
-1.948005054146051407e-03
-4.183276090770959854e-03
-6.397400517016649246e-03
-8.553016930818557739e-03
-1.061311457306146622e-02
-1.254181191325187683e-02
-1.430814433842897415e-02
-1.589279249310493469e-02
-1.729119196534156799e-02
-1.850993186235427856e-02
-1.955963298678398132e-02
-2.044890634715557098e-02
-2.118328027427196503e-02
-2.176789566874504089e-02
-2.220921590924263000e-02
-2.251433581113815308e-02
-2.268995158374309540e-02
-2.274262160062789917e-02
-2.268121205270290375e-02
-2.251978777348995209e-02
-2.227624505758285522e-02
-2.196629345417022705e-02
-2.159710973501205444e-02
-2.115947753190994263e-02
-2.061326429247856140e-02
-1.987015083432197571e-02
-1.878682896494865417e-02
-1.717757061123847961e-02
-1.484407857060432434e-02
-1.161484979093074799e-02
-7.385332137346267700e-03
-2.150030806660652161e-03
3.980791196227073669e-03
1.078440621495246887e-02
1.794791221618652344e-02
2.510302700102329254e-02
3.186996281147003174e-02
3.790498152375221252e-02
4.293626546859741211e-02
4.677952826023101807e-02
4.933940619230270386e-02
5.060403048992156982e-02
5.063652247190475464e-02
4.956354200839996338e-02
4.756110534071922302e-02
4.483972489833831787e-02
4.162797704339027405e-02
3.815450519323348999e-02
3.463181480765342712e-02
3.124084323644638062e-02
2.811564505100250244e-02
2.533378638327121735e-02
2.291558124125003815e-02
2.083033137023448944e-02
1.900691166520118713e-02
1.734703779220581055e-02
1.574227958917617798e-02
1.409275364130735397e-02
1.232057437300682068e-02
1.037563011050224304e-02
8.235724642872810364e-03
5.902634933590888977e-03
3.397771622985601425e-03
7.611606270074844360e-04
-1.949940575286746025e-03
-4.667873494327068329e-03
-7.325250189751386642e-03
-9.864118881523609161e-03
-1.224111486226320267e-02
-1.442967727780342102e-02
-1.641892082989215851e-02
-1.820925250649452209e-02
-1.980772428214550018e-02
-2.122471667826175690e-02
-2.247154153883457184e-02
-2.355726808309555054e-02
-2.448446117341518402e-02
-2.524580992758274078e-02
-2.582405693829059601e-02
-2.619709447026252747e-02
-2.634415589272975922e-02
-2.624780312180519104e-02
-2.589396573603153229e-02
-2.527283877134323120e-02
-2.437742985785007477e-02
-2.319399826228618622e-02
-2.168451808393001556e-02
-1.977179758250713348e-02
-1.733774878084659576e-02
-1.423792354762554169e-02
-1.033232919871807098e-02
-5.527270957827568054e-03
1.843068748712539673e-04
6.698344834148883820e-03
1.379943825304508209e-02
2.118267863988876343e-02
2.848883345723152161e-02
3.534448519349098206e-02
4.140097647905349731e-02
4.636745527386665344e-02
5.003547668457031250e-02
5.229255557060241699e-02
5.312304571270942688e-02
5.259800702333450317e-02
5.085586756467819214e-02
4.807853326201438904e-02
4.447057843208312988e-02
4.024440422654151917e-02
3.560946881771087646e-02
3.076235577464103699e-02
2.587629482150077820e-02
2.109223976731300354e-02
1.651304587721824646e-02
1.220082491636276245e-02
8.178975433111190796e-03
4.439400508999824524e-03
9.521543979644775391e-04
-2.326130867004394531e-03
-5.446689203381538391e-03
-8.464815095067024231e-03
-1.143469288945198059e-02
-1.440263539552688599e-02
-1.740132831037044525e-02
-2.044668048620223999e-02
-2.353756874799728394e-02
-2.665819413959980011e-02
-2.978251688182353973e-02
-3.287758678197860718e-02
-3.590387105941772461e-02
-3.881670162081718445e-02
-4.157058522105216980e-02
-4.412256926298141479e-02
-4.643382132053375244e-02
-4.847305640578269958e-02
-5.022130161523818970e-02
-5.167246609926223755e-02
-5.282983928918838501e-02
-5.370263755321502686e-02
-5.430351942777633667e-02
-5.464705824851989746e-02
-5.474793910980224609e-02
-5.461815744638442993e-02
-5.426744371652603149e-02
-5.370783433318138123e-02
-5.295472964644432068e-02
-5.202291160821914673e-02
-5.092437192797660828e-02
-4.966550320386886597e-02
-4.823605716228485107e-02
-4.659174010157585144e-02
-4.464001581072807312e-02
-4.223857820034027100e-02
-3.921169042587280273e-02
-3.538262471556663513e-02
-3.061368688941001892e-02
-2.484380453824996948e-02
-1.811518520116806030e-02
-1.058281958103179932e-02
-2.505326643586158752e-03
5.781708285212516785e-03
1.390545815229415894e-02
2.149983122944831848e-02
2.824585698544979095e-02
3.390152752399444580e-02
3.831538185477256775e-02
4.142589494585990906e-02
4.325424507260322571e-02
4.389353841543197632e-02
4.349337518215179443e-02
4.224263876676559448e-02
4.035388678312301636e-02
3.804854676127433777e-02
3.554128110408782959e-02
3.302342444658279419e-02
3.064830228686332703e-02
2.852192521095275879e-02
2.670048177242279053e-02
2.519240602850914001e-02
2.396270446479320526e-02
2.294328249990940094e-02
2.205056697130203247e-02
2.120160683989524841e-02
2.032179199159145355e-02
1.934823766350746155e-02
1.823437213897705078e-02
1.695421151816844940e-02
1.550292875617742538e-02
1.389397308230400085e-02
1.215417683124542236e-02
1.031909324228763580e-02
8.430923335254192352e-03
6.537317298352718353e-03
4.688236862421035767e-03
2.930900081992149353e-03
1.304194331169128418e-03
-1.658834517002105713e-04
-1.467876136302947998e-03
-2.602394670248031616e-03
-3.576843068003654480e-03
-4.401074722409248352e-03
-5.086932331323623657e-03
-5.649244412779808044e-03
-6.103556603193283081e-03
-6.464315578341484070e-03
-6.747899577021598816e-03
-6.973236799240112305e-03
-7.156802341341972351e-03
-7.309321314096450806e-03
-7.435055449604988098e-03
-7.526783272624015808e-03
-7.553027942776679993e-03
-7.442526519298553467e-03
-7.076766341924667358e-03
-6.297564134001731873e-03
-4.928704351186752319e-03
-2.806473523378372192e-03
1.864209771156311035e-04
4.089692607522010803e-03
8.845265954732894897e-03
1.429435051977634430e-02
2.019100822508335114e-02
2.622720226645469666e-02
3.206561133265495300e-02
3.737677633762359619e-02
4.187415540218353271e-02
4.533886164426803589e-02
4.763092100620269775e-02
4.869221895933151245e-02
4.854536801576614380e-02
4.728718847036361694e-02
4.507546126842498779e-02
4.211065173149108887e-02
3.861528635025024414e-02
3.481373190879821777e-02
3.091618791222572327e-02
2.710705623030662537e-02
2.353390306234359741e-02
2.029776945710182190e-02
1.744743436574935913e-02
1.497926190495491028e-02
1.284391060471534729e-02
1.095857191830873489e-02
9.221018292009830475e-03
7.523344829678535461e-03
5.766623187810182571e-03
3.876096103340387344e-03
1.811303198337554932e-03
-4.333592951297760010e-04
-2.834706101566553116e-03
-5.349114537239074707e-03
-7.921925745904445648e-03
-1.049482170492410660e-02
-1.300967298448085785e-02
-1.541349105536937714e-02
-1.766518317162990570e-02
-1.973815262317657471e-02
-2.161868289113044739e-02
-2.330371737480163574e-02
-2.479652129113674164e-02
-2.610116265714168549e-02
-2.722040563821792603e-02
-2.815699763596057892e-02
-2.891462668776512146e-02
-2.949712797999382019e-02
-2.990722097456455231e-02
-3.014545142650604248e-02
-3.020828403532505035e-02
-3.008601069450378418e-02
-2.976538799703121185e-02
-2.923910133540630341e-02
-2.851315401494503021e-02
-2.760403417050838470e-02
-2.652868814766407013e-02
-2.529023401439189911e-02
-2.386025711894035339e-02
-2.216579392552375793e-02
-2.009095810353755951e-02
-1.749504730105400085e-02
-1.424124464392662048e-02
-1.023036800324916840e-02
-5.434471182525157928e-03
7.926952093839645386e-05
6.142091937363147736e-03
1.249613519757986069e-02
1.882358640432357788e-02
2.478563599288463593e-02
3.006266057491302490e-02
3.438930213451385498e-02
3.757907450199127197e-02
3.953476995229721069e-02
4.024651274085044861e-02
3.978263214230537415e-02
3.827498108148574829e-02
3.589793667197227478e-02
3.284546360373497009e-02
2.931314334273338318e-02
2.548706904053688049e-02
2.153742313385009766e-02
1.761334389448165894e-02
1.383645832538604736e-02
1.029337756335735321e-02
7.030425593256950378e-03
4.054492339491844177e-03
1.340225338935852051e-03
-1.159293577075004578e-03
-3.500917926430702209e-03
-5.742030218243598938e-03
-7.935697212815284729e-03
-1.012748759239912033e-02
-1.234865095466375351e-02
-1.460792031139135361e-02
-1.689054258167743683e-02
-1.916546374559402466e-02
-2.139372378587722778e-02
-2.353604324162006378e-02
-2.555981278419494629e-02
-2.744063176214694977e-02
-2.915804833173751831e-02
-3.069390915334224701e-02
-3.203571587800979614e-02
-3.317906334996223450e-02
-3.412710130214691162e-02
-3.488804772496223450e-02
-3.547246009111404419e-02
-3.589227795600891113e-02
-3.616048768162727356e-02
-3.628995642066001892e-02
-3.629225119948387146e-02
-3.617709130048751831e-02
-3.595243394374847412e-02
-3.562486171722412109e-02
-3.519973903894424438e-02
-3.468116372823715210e-02
-3.407253697514533997e-02
-3.337781876325607300e-02
-3.260140866041183472e-02
-3.174273297190666199e-02
-3.078448399901390076e-02
-2.967836335301399231e-02
-2.833568863570690155e-02
-2.662915363907814026e-02
-2.440685033798217773e-02
-2.151744626462459564e-02
-1.784361340105533600e-02
-1.333487965166568756e-02
-8.028989657759666443e-03
-2.058407291769981384e-03
4.357712343335151672e-03
1.093772798776626587e-02
1.737302169203758240e-02
2.336394600570201874e-02
2.865030989050865173e-02
3.303331136703491211e-02
3.638551011681556702e-02
3.865153715014457703e-02
3.984518349170684814e-02
4.004420340061187744e-02
3.938105702400207520e-02
3.802842646837234497e-02
3.618205338716506958e-02
3.404354676604270935e-02
3.180351853370666504e-02
2.962614223361015320e-02
2.763626724481582642e-02
2.591118589043617249e-02
2.448032796382904053e-02
2.333240956068038940e-02
2.242444455623626709e-02
2.168918773531913757e-02
2.104381471872329712e-02
2.040198072791099548e-02
1.968556270003318787e-02
1.883148029446601868e-02
1.779470592737197876e-02
1.655210927128791809e-02
1.510575506836175919e-02
1.348106283694505692e-02
1.172042544931173325e-02
9.874356910586357117e-03
7.992709055542945862e-03
6.119768135249614716e-03
4.293153062462806702e-03
2.543276641517877579e-03
8.924789726734161377e-04
-6.447583436965942383e-04
-2.061695326119661331e-03
-3.359610214829444885e-03
-4.544002003967761993e-03
-5.618305876851081848e-03
-6.582250818610191345e-03
-7.433865219354629517e-03
-8.170876652002334595e-03
-8.792676962912082672e-03
-9.303747676312923431e-03
-9.713851846754550934e-03
-1.002993434667587280e-02
-1.024078298360109329e-02
-1.029959321022033691e-02
-1.011162996292114258e-02
-9.534651413559913635e-03
-8.399119600653648376e-03
-6.546076387166976929e-03
-3.866528160870075226e-03
-3.308756276965141296e-04
3.992856480181217194e-03
8.935189805924892426e-03
1.423849351704120636e-02
1.958436146378517151e-02
2.462924085557460785e-02
2.904232218861579895e-02
3.254055976867675781e-02
3.491552919149398804e-02
3.604684025049209595e-02
3.590358793735504150e-02
3.454028069972991943e-02
3.208794072270393372e-02
2.873779833316802979e-02
2.472016587853431702e-02
2.028276026248931885e-02
1.567053981125354767e-02
1.110947690904140472e-02
6.794260814785957336e-03
2.876876853406429291e-03
-5.427291616797447205e-04
-3.421666100621223450e-03
-5.774043500423431396e-03
-7.661557756364345551e-03
-9.176724590361118317e-03
-1.042883377522230148e-02
-1.153403706848621368e-02
-1.260448247194290161e-02
-1.373642962425947189e-02
-1.499964296817779541e-02
-1.643076166510581970e-02
-1.803329400718212128e-02
-1.978186145424842834e-02
-2.162711322307586670e-02
-2.350368350744247437e-02
-2.534219436347484589e-02
-2.707857452332973480e-02
-2.865740098059177399e-02
-3.003462404012680054e-02
-3.118095546960830688e-02
-3.208271414041519165e-02
-3.274074569344520569e-02
-3.316849470138549805e-02
-3.338930755853652954e-02
-3.343413770198822021e-02
-3.333840891718864441e-02
-3.313554823398590088e-02
-3.284808248281478882e-02
-3.247727081179618835e-02
-3.198960795998573303e-02
-3.130284324288368225e-02
-3.027972765266895294e-02
-2.873751334846019745e-02
-2.647543139755725861e-02
-2.331348508596420288e-02
-1.913255453109741211e-02
-1.390881836414337158e-02
-7.735548540949821472e-03
-8.239410817623138428e-04
6.519169546663761139e-03
1.392763666808605194e-02
2.101554721593856812e-02
2.741932310163974762e-02
3.284046053886413574e-02
3.707654774188995361e-02
4.003149271011352539e-02
4.170596599578857422e-02
4.217636957764625549e-02
4.157284274697303772e-02
4.006179422140121460e-02
3.783264383673667908e-02
3.508526086807250977e-02
3.201606497168540955e-02
2.880521118640899658e-02
2.560705877840518951e-02
2.254473976790904999e-02
1.970718428492546082e-02
1.714555546641349792e-02
1.487244665622711182e-02
1.286804862320423126e-02
1.108872890472412109e-02
9.472781792283058167e-03
7.946418598294258118e-03
6.434276700019836426e-03
4.869963042438030243e-03
3.201177343726158142e-03
1.392687670886516571e-03
-5.695819854736328125e-04
-2.675609663128852844e-03
-4.892100580036640167e-03
-7.167654577642679214e-03
-9.442098438739776611e-03
-1.165760867297649384e-02
-1.376582682132720947e-02
-1.572985015809535980e-02
-1.752441003918647766e-02
-1.913484744727611542e-02
-2.055588923394680023e-02
-2.179050818085670471e-02
-2.284724265336990356e-02
-2.373745664954185486e-02
-2.447376027703285217e-02
-2.506817132234573364e-02
-2.553076297044754028e-02
-2.587036043405532837e-02
-2.609625644981861115e-02
-2.621944248676300049e-02
-2.625118009746074677e-02
-2.619723230600357056e-02
-2.604700811207294464e-02
-2.575613930821418762e-02
-2.522796578705310822e-02
-2.430815808475017548e-02
-2.279984764754772186e-02
-2.049409970641136169e-02
-1.720863766968250275e-02
-1.283023133873939514e-02
-7.351359352469444275e-03
-8.884770795702934265e-04
6.322454195469617844e-03
1.394843310117721558e-02
2.159531414508819580e-02
2.885259501636028290e-02
3.533829376101493835e-02
4.073687642812728882e-02
4.482703655958175659e-02
4.749474301934242249e-02
4.873072355985641479e-02
4.861725121736526489e-02
4.730796441435813904e-02
4.500477015972137451e-02
4.193541035056114197e-02
3.833328187465667725e-02
3.442184254527091980e-02
3.040337190032005310e-02
2.644875273108482361e-02
2.268822118639945984e-02
1.920681260526180267e-02
1.604437455534934998e-02
1.319839619100093842e-02
1.063128560781478882e-02
8.281419053673744202e-03
6.074434146285057068e-03
3.933986648917198181e-03
1.791324466466903687e-03
-4.077795892953872681e-04
-2.698954194784164429e-03
-5.098169669508934021e-03
-7.602095603942871094e-03
-1.018845755606889725e-02
-1.281927339732646942e-02
-1.544701121747493744e-02
-1.801939681172370911e-02
-2.048317156732082367e-02
-2.278944849967956543e-02
-2.489945665001869202e-02
-2.678862586617469788e-02
-2.844780497252941132e-02
-2.987998723983764648e-02
-3.109501674771308899e-02
-3.210666775703430176e-02
-3.293135762214660645e-02
-3.358669579029083252e-02
-3.408858180046081543e-02
-3.444753959774971008e-02
-3.466992452740669250e-02
-3.476274758577346802e-02
-3.473295271396636963e-02
-3.458399325609207153e-02
-3.431739658117294312e-02
-3.393643721938133240e-02
-3.344712406396865845e-02
-3.285394608974456787e-02
-3.214816004037857056e-02
-3.129065409302711487e-02
-3.019553050398826599e-02
-2.872095629572868347e-02
-2.667491137981414795e-02
-2.384302765130996704e-02
-2.003369480371475220e-02
-1.512531749904155731e-02
-9.103287011384963989e-03
-2.078862860798835754e-03
5.711978301405906677e-03
1.392827462404966354e-02
2.216153964400291443e-02
2.998509816825389862e-02
3.700282424688339233e-02
4.288753867149353027e-02
4.740894958376884460e-02
5.044959858059883118e-02
5.200191959738731384e-02
5.215149745345115662e-02
5.105804279446601868e-02
4.893461987376213074e-02
4.602377861738204956e-02
4.257669299840927124e-02
3.883840516209602356e-02
3.503432124853134155e-02
3.135528415441513062e-02
2.794608660042285919e-02
2.490062825381755829e-02
2.226131968200206757e-02
2.002019248902797699e-02
1.812369562685489655e-02
1.648356951773166656e-02
1.499241590499877930e-02
1.353994291275739670e-02
1.202669087797403336e-02
1.037397701293230057e-02
8.529145270586013794e-03
6.466444581747055054e-03
4.185589961707592010e-03
1.710033975541591644e-03
-9.154360741376876831e-04
-3.630081191658973694e-03
-6.365772336721420288e-03
-9.056398645043373108e-03
-1.164434291422367096e-02
-1.408250443637371063e-02
-1.633516326546669006e-02
-1.837870664894580841e-02
-2.020115032792091370e-02
-2.180181257426738739e-02
-2.318923734128475189e-02
-2.437606826424598694e-02
-2.537601999938488007e-02
-2.620467357337474823e-02
-2.687983401119709015e-02
-2.741907164454460144e-02
-2.783538214862346649e-02
-2.813409082591533661e-02
-2.831433713436126709e-02
-2.837415039539337158e-02
-2.831411175429821014e-02
-2.813752926886081696e-02
-2.784801647067070007e-02
-2.744086459279060364e-02
-2.688518539071083069e-02
-2.610276639461517334e-02
-2.495576441287994385e-02
-2.325345948338508606e-02
-2.078079059720039368e-02
-1.734389923512935638e-02
-1.281933113932609558e-02
-7.190091535449028015e-03
-5.620429292321205139e-04
6.838192231953144073e-03
1.468308083713054657e-02
2.257894910871982574e-02
3.011019900441169739e-02
3.688567504286766052e-02
4.257866740226745605e-02
4.695506021380424500e-02
4.988676309585571289e-02
5.134875699877738953e-02
5.140371620655059814e-02
5.018422007560729980e-02
4.787739366292953491e-02
4.470749571919441223e-02
4.091547802090644836e-02
3.673980385065078735e-02
3.240048140287399292e-02
2.808644808828830719e-02
2.394626662135124207e-02
2.008409611880779266e-02
1.656172424554824829e-02
1.340205781161785126e-02
1.059095188975334167e-02
8.080918341875076294e-03
5.800371989607810974e-03
3.667072393000125885e-03
1.600619871169328690e-03
-4.698396660387516022e-04
-2.600650768727064133e-03
-4.827893804758787155e-03
-7.163338363170623779e-03
-9.595235809683799744e-03
-1.209118589758872986e-02
-1.460268348455429077e-02
-1.707482896745204926e-02
-1.945748738944530487e-02
-2.171020954847335815e-02
-2.380153164267539978e-02
-2.570753544569015503e-02
-2.740951068699359894e-02
-2.889080904424190521e-02
-3.013776987791061401e-02
-3.114453703165054321e-02
-3.191578388214111328e-02
-3.246624022722244263e-02
-3.281902894377708435e-02
-3.300172090530395508e-02
-3.303979337215423584e-02
-3.295203298330307007e-02
-3.275124728679656982e-02
-3.244596719741821289e-02
-3.203888982534408569e-02
-3.152550011873245239e-02
-3.089625760912895203e-02
-3.014108911156654358e-02
-2.925461158156394958e-02
