3.098171353340148926e-01
2.782311141490936279e-01
2.393323779106140137e-01
1.966404318809509277e-01
1.536092907190322876e-01
1.131376400589942932e-01
7.723791152238845825e-02
4.692969471216201782e-02
2.233416959643363953e-02
2.853352576494216919e-03
-1.264661550521850586e-02
-2.562741190195083618e-02
-3.758534789085388184e-02
-4.969869554042816162e-02
-6.255242228507995605e-02
-7.608080655336380005e-02
-8.978493511676788330e-02
-1.031201183795928955e-01
-1.157800853252410889e-01
-1.276205331087112427e-01
-1.382890939712524414e-01
-1.470424234867095947e-01
-1.530838459730148315e-01
-1.560981273651123047e-01
-1.564493477344512939e-01
-1.549015492200851440e-01
-1.520938277244567871e-01
-1.481789201498031616e-01
-1.429025530815124512e-01
-1.358947455883026123e-01
-1.268095672130584717e-01
-1.154067218303680420e-01
-1.017616391181945801e-01
-8.639504015445709229e-02
-7.011985778808593750e-02
-5.381441116333007812e-02
-3.833939135074615479e-02
-2.448754012584686279e-02
-1.289263367652893066e-02
-4.001080989837646484e-03
1.799196004867553711e-03
3.837510943412780762e-03
1.049444079399108887e-03
-7.357656955718994141e-03
-2.114222943782806396e-02
-3.896328806877136230e-02
-5.853587388992309570e-02
-7.671931385993957520e-02
-8.984097838401794434e-02
-9.426173567771911621e-02
-8.711880445480346680e-02
-6.705018877983093262e-02
-3.470326960086822510e-02
7.023498415946960449e-03
5.337849259376525879e-02
9.888815134763717651e-02
1.385938823223114014e-01
1.688762009143829346e-01
1.878035962581634521e-01
1.950867176055908203e-01
1.917634010314941406e-01
1.798250079154968262e-01
1.619497239589691162e-01
1.412922441959381104e-01
1.211675480008125305e-01
1.045914217829704285e-01
9.380623698234558105e-02
8.997197449207305908e-02
9.311719238758087158e-02
1.022702082991600037e-01
1.156345754861831665e-01
1.308169066905975342e-01
1.452291011810302734e-01
1.566500663757324219e-01
1.636736690998077393e-01
1.658832728862762451e-01
1.639397740364074707e-01
1.595847904682159424e-01
1.552760303020477295e-01
1.534941792488098145e-01
1.560549288988113403e-01
1.636590510606765747e-01
1.757804155349731445e-01
1.908586621284484863e-01
2.066590189933776855e-01
2.206907868385314941e-01
2.306169718503952026e-01
2.346073389053344727e-01
2.316138446331024170e-01
2.215203046798706055e-01
2.051001787185668945e-01
1.837887614965438843e-01
1.593541651964187622e-01
1.335741281509399414e-01
1.080048084259033203e-01
8.386112004518508911e-02
6.197329610586166382e-02
4.278526455163955688e-02
2.638575807213783264e-02
1.257799193263053894e-02
9.772814810276031494e-04
-8.901938796043395996e-03
-1.759900897741317749e-02
-2.567224577069282532e-02
-3.362051397562026978e-02
-4.177869111299514771e-02
-5.026663839817047119e-02
-5.902490019798278809e-02
-6.790730357170104980e-02
-7.677561044692993164e-02
-8.554799854755401611e-02
-9.419138729572296143e-02
-1.026760116219520569e-01
-1.109186112880706787e-01
-1.187446117401123047e-01
-1.258906275033950806e-01
-1.320469081401824951e-01
-1.369246542453765869e-01
-1.403476148843765259e-01
-1.423770487308502197e-01
-1.433871984481811523e-01
-1.439552456140518188e-01
-1.446066200733184814e-01
-1.456208825111389160e-01
-1.470101028680801392e-01
-1.486030071973800659e-01
-1.501075923442840576e-01
-1.511089205741882324e-01
-1.510703861713409424e-01
-1.494107544422149658e-01
-1.456488072872161865e-01
-1.395443826913833618e-01
-1.311767995357513428e-01
-1.209545135498046875e-01
-1.095678210258483887e-01
-9.789036959409713745e-02
-8.682989329099655151e-02
-7.714536786079406738e-02
-6.930664181709289551e-02
-6.348527967929840088e-02
-5.966995283961296082e-02
-5.778943747282028198e-02
-5.773561820387840271e-02
-5.930012464523315430e-02
-6.211721152067184448e-02
-6.567794084548950195e-02
-6.941023468971252441e-02
-7.276084274053573608e-02
-7.522132992744445801e-02
-7.632011175155639648e-02
-7.564330101013183594e-02
-7.290568947792053223e-02
-6.805130839347839355e-02
-6.132025644183158875e-02
-5.320425331592559814e-02
-4.430498555302619934e-02
-3.519728034734725952e-02
-2.635779790580272675e-02
-1.814007200300693512e-02
-1.077810954302549362e-02
-4.430553875863552094e-03
7.484685629606246948e-04
4.574199207127094269e-03
6.872816942632198334e-03
7.563360966742038727e-03
6.725292652845382690e-03
4.635487683117389679e-03
1.763070933520793915e-03
-1.315008616074919701e-03
-4.085117951035499573e-03
-6.275807507336139679e-03
-7.923027500510215759e-03
-9.250642731785774231e-03
-1.042681001126766205e-02
-1.135251112282276154e-02
-1.157982647418975830e-02
-1.039476506412029266e-02
-7.089644670486450195e-03
-1.338042318820953369e-03
6.531434133648872375e-03
1.553649455308914185e-02
2.435995079576969147e-02
3.183712437748908997e-02
3.730764240026473999e-02
4.062005132436752319e-02
4.189484193921089172e-02
4.132868722081184387e-02
3.917607292532920837e-02
3.580302000045776367e-02
3.168713673949241638e-02
2.740335650742053986e-02
2.363359183073043823e-02
2.110175415873527527e-02
2.037131786346435547e-02
2.158222720026969910e-02
2.429035305976867676e-02
2.758212760090827942e-02
3.047649934887886047e-02
3.235144913196563721e-02
3.308772668242454529e-02
3.293099254369735718e-02
3.227231651544570923e-02
3.139667958021163940e-02
3.022656217217445374e-02
2.829558029770851135e-02
2.526997216045856476e-02
2.171511016786098480e-02
1.889810338616371155e-02
1.762158982455730438e-02
1.776715368032455444e-02
1.886329986155033112e-02
2.058498188853263855e-02
2.284309267997741699e-02
2.568295225501060486e-02
2.911970019340515137e-02
3.297741711139678955e-02
3.678575530648231506e-02
3.982795774936676025e-02
4.137948155403137207e-02
4.098616540431976318e-02
3.857596591114997864e-02
3.440028429031372070e-02
2.894641831517219543e-02
2.286408096551895142e-02
1.681224629282951355e-02
1.121238153427839279e-02
6.112186238169670105e-03
1.310175284743309021e-03
-3.388166427612304688e-03
-7.975541055202484131e-03
-1.216481439769268036e-02
-1.539692841470241547e-02
-1.692692004144191742e-02
-1.603431999683380127e-02
-1.234639436006546021e-02
-6.093194708228111267e-03
1.894110813736915588e-03
1.042239181697368622e-02
1.827836968004703522e-02
2.454121224582195282e-02
2.875259891152381897e-02
3.090854734182357788e-02
3.130246326327323914e-02
3.031705878674983978e-02
2.831310778856277466e-02
2.564151957631111145e-02
2.268370240926742554e-02
1.986337639391422272e-02
1.761990785598754883e-02
1.633578911423683167e-02
1.622214540839195251e-02
1.719376072287559509e-02
1.880694925785064697e-02
2.033859305083751678e-02
2.100575529038906097e-02
2.023960649967193604e-02
1.789498887956142426e-02
1.429051253944635391e-02
1.007970888167619705e-02
6.062027998268604279e-03
2.984673716127872467e-03
1.162784639745950699e-03
1.400546170771121979e-05
-1.678054453805088997e-03
-4.752654582262039185e-03
-9.146727621555328369e-03
-1.417582482099533081e-02
-1.897123269736766815e-02
-2.276285551488399506e-02
-2.498090639710426331e-02
-2.533098682761192322e-02
-2.390882000327110291e-02
-2.115044556558132172e-02
-1.759480312466621399e-02
-1.368674356490373611e-02
-9.768910706043243408e-03
-6.178797688335180283e-03
-3.280274569988250732e-03
-1.390747725963592529e-03
-6.906734779477119446e-04
-1.216591335833072662e-03
-2.943193539977073669e-03
-5.827966146171092987e-03
-9.747325442731380463e-03
-1.445425860583782196e-02
-1.969269663095474243e-02
-2.517454884946346283e-02
-3.025092370808124542e-02
-3.404962643980979919e-02
-3.614333271980285645e-02
-3.665450960397720337e-02
-3.585188090801239014e-02
-3.398557752370834351e-02
-3.131285309791564941e-02
-2.809869870543479919e-02
-2.458859793841838837e-02
-2.096620388329029083e-02
-1.730740815401077271e-02
-1.355397980660200119e-02
-9.535998106002807617e-03
-5.067617632448673248e-03
-2.551265060901641846e-05
5.750702228397130966e-03
1.254638005048036575e-02
2.058251015841960907e-02
2.977512776851654053e-02
3.964442014694213867e-02
4.922631382942199707e-02
5.707246810197830200e-02
6.164703518152236938e-02
6.193394213914871216e-02
5.775163322687149048e-02
4.971418529748916626e-02
3.903801739215850830e-02
2.727448940277099609e-02
1.603598520159721375e-02
6.742324680089950562e-03
3.487113863229751587e-04
-2.882419154047966003e-03
-3.409674391150474548e-03
-2.201531082391738892e-03
-4.193745553493499756e-04
8.723922073841094971e-04
9.352229535579681396e-04
-4.809591919183731079e-04
-3.098212182521820068e-03
-6.279658526182174683e-03
-9.381270036101341248e-03
-1.206624321639537811e-02
-1.435499452054500580e-02
-1.646932959556579590e-02
-1.867062225937843323e-02
-2.110402658581733704e-02
-2.367857843637466431e-02
-2.616309188306331635e-02
-2.843816205859184265e-02
-3.064214624464511871e-02
-3.317540138959884644e-02
-3.661012649536132812e-02
-4.138780385255813599e-02
-4.734569042921066284e-02
-5.346159264445304871e-02
-5.816827714443206787e-02
-6.006744876503944397e-02
-5.842249095439910889e-02
-5.316385626792907715e-02
-4.475964233279228210e-02
-3.415314480662345886e-02
-2.261439897119998932e-02
-1.146692968904972076e-02
-1.827651634812355042e-03
5.506090819835662842e-03
1.003874372690916061e-02
1.156402006745338440e-02
1.020121760666370392e-02
6.430126726627349854e-03
1.091449521481990814e-03
-4.722552374005317688e-03
-9.947411715984344482e-03
-1.380974426865577698e-02
-1.583796367049217224e-02
-1.572714373469352722e-02
-1.332744956016540527e-02
-8.793823421001434326e-03
-2.693211194127798080e-03
4.097128752619028091e-03
1.063622348010540009e-02
1.612039841711521149e-02
1.994111388921737671e-02
2.171769365668296814e-02
2.147280983626842499e-02
1.975422166287899017e-02
1.736014708876609802e-02
1.483041979372501373e-02
1.211062073707580566e-02
8.582456037402153015e-03
3.518519923090934753e-03
-3.251308109611272812e-03
-1.094577834010124207e-02
-1.802725717425346375e-02
-2.283333986997604370e-02
-2.420448511838912964e-02
-2.183625847101211548e-02
-1.629751175642013550e-02
-8.742528036236763000e-03
-4.968810826539993286e-04
7.284460589289665222e-03
1.380171347409486771e-02
1.862879469990730286e-02
2.163214236497879028e-02
2.287429943680763245e-02
2.252042479813098907e-02
2.076340280473232269e-02
1.781341433525085449e-02
1.392026618123054504e-02
9.358899667859077454e-03
4.397840239107608795e-03
-6.947438232600688934e-04
-5.606901831924915314e-03
-9.957689791917800903e-03
-1.334256306290626526e-02
-1.541923545300960541e-02
-1.596415787935256958e-02
-1.487478986382484436e-02
-1.215307787060737610e-02
-7.902937009930610657e-03
-2.333001233637332916e-03
4.216749686747789383e-03
1.121832244098186493e-02
1.796377822756767273e-02
2.372202649712562561e-02
2.795297652482986450e-02
3.036762587726116180e-02
3.083870559930801392e-02
2.941648662090301514e-02
2.649968490004539490e-02
2.294586412608623505e-02
1.994826272130012512e-02
1.864848658442497253e-02
1.967698149383068085e-02
2.291986346244812012e-02
2.759073860943317413e-02
3.249647840857505798e-02
3.638286888599395752e-02
3.825952112674713135e-02
3.761284425854682922e-02
3.445177525281906128e-02
2.921112254261970520e-02
2.256491035223007202e-02
1.516708359122276306e-02
7.441602647304534912e-03
-3.969566896557807922e-04
-8.151542395353317261e-03
-1.550218276679515839e-02
-2.200596407055854797e-02
-2.720172330737113953e-02
-3.077331557869911194e-02
-3.269787877798080444e-02
-3.328350186347961426e-02
-3.307691588997840881e-02
-3.271627426147460938e-02
-3.279601782560348511e-02
-3.375117480754852295e-02
-3.576515242457389832e-02
-3.873676434159278870e-02
-4.232759401202201843e-02
-4.606158286333084106e-02
-4.943172633647918701e-02
-5.199165642261505127e-02
-5.341912806034088135e-02
-5.352969467639923096e-02
-5.224457383155822754e-02
-4.955586791038513184e-02
-4.552676156163215637e-02
-4.031832143664360046e-02
-3.420013561844825745e-02
-2.751927450299263000e-02
-2.064488083124160767e-02
-1.391775161027908325e-02
-7.622063159942626953e-03
-1.982504501938819885e-03
2.827432006597518921e-03
6.693700328469276428e-03
9.601909667253494263e-03
1.168175600469112396e-02
1.320901513099670410e-02
1.455195527523756027e-02
1.607894524931907654e-02
1.805873215198516846e-02
2.060171961784362793e-02
2.367587015032768250e-02
2.716832607984542847e-02
3.092209249734878540e-02
3.472568839788436890e-02
3.830467909574508667e-02
4.135359823703765869e-02
4.360161349177360535e-02
4.488457739353179932e-02
4.517622292041778564e-02
4.456279054284095764e-02
4.321493953466415405e-02
4.138440638780593872e-02
3.938063979148864746e-02
3.749945014715194702e-02
3.593898192048072815e-02
3.475290909409523010e-02
3.386077284812927246e-02
3.310251235961914062e-02
3.229574114084243774e-02
3.126390278339385986e-02
2.985183149576187134e-02
2.794535644352436066e-02
2.548088133335113525e-02
2.244227007031440735e-02
1.885609328746795654e-02
1.479197200387716293e-02
1.045208238065242767e-02
6.421641446650028229e-03
3.711638506501913071e-03
3.185248235240578651e-03
4.880588967353105545e-03
7.971435785293579102e-03
1.120046339929103851e-02
1.326975785195827484e-02
1.308922097086906433e-02
9.990710765123367310e-03
3.881718963384628296e-03
-4.821183159947395325e-03
-1.547447219491004944e-02
-2.728965878486633301e-02
-3.902243450284004211e-02
-4.884722828865051270e-02
-5.483643710613250732e-02
-5.548040196299552917e-02
-4.959034547209739685e-02
-3.606446459889411926e-02
-1.431049406528472900e-02
1.502069272100925446e-02
4.975039511919021606e-02
8.648806065320968628e-02
1.213444620370864868e-01
1.507066041231155396e-01
1.717589795589447021e-01
1.827250421047210693e-01
1.829551756381988525e-01
1.727843284606933594e-01
1.530357003211975098e-01
1.245863437652587891e-01
8.851878345012664795e-02
4.656742513179779053e-02
1.295886933803558350e-03
-4.411697015166282654e-02
-8.636808395385742188e-02
-1.225634813308715820e-01
-1.505353450775146484e-01
-1.688967347145080566e-01
-1.770485937595367432e-01
-1.753397434949874878e-01
-1.652245521545410156e-01
-1.491405367851257324e-01
-1.301777958869934082e-01
-1.118266358971595764e-01
-9.808460623025894165e-02
-9.579283744096755981e-02
-1.218086704611778259e-01
-2.133150100708007812e-01
-4.396802186965942383e-01
-9.169279932975769043e-01
-1.808155179023742676e+00
-3.279420614242553711e+00
-5.418402194976806641e+00
-8.168922424316406250e+00
-1.131906032562255859e+01
-1.453955936431884766e+01
-1.745458602905273438e+01
-1.972032165527343750e+01
-2.108378219604492188e+01
-2.141129684448242188e+01
-2.069260215759277344e+01
-1.902735710144042969e+01
-1.659904670715332031e+01
-1.364199256896972656e+01
-1.040567779541015625e+01
-7.120167732238769531e+00
-3.971354484558105469e+00
-1.092493057250976562e+00
1.433295726776123047e+00
3.567312240600585938e+00
5.308568000793457031e+00
6.686020851135253906e+00
7.749502658843994141e+00
8.560081481933593750e+00
9.181387901306152344e+00
9.672611236572265625e+00
1.008320808410644531e+01
1.044949340820312500e+01
1.079357433319091797e+01
1.112463760375976562e+01
1.144181251525878906e+01
1.173769474029541016e+01
1.200187110900878906e+01
1.222386646270751953e+01
1.239511680603027344e+01
1.250997161865234375e+01
1.256603050231933594e+01
1.256403160095214844e+01
1.250736904144287109e+01
1.240127563476562500e+01
1.225189208984375000e+01
1.206539630889892578e+01
1.184732246398925781e+01
1.160213565826416016e+01
1.133305358886718750e+01
1.104210281372070312e+01
1.073033332824707031e+01
1.039813041687011719e+01
1.004556274414062500e+01
9.672695159912109375e+00
9.279848098754882812e+00
8.867758750915527344e+00
8.437654495239257812e+00
7.991242408752441406e+00
7.530623912811279297e+00
7.058174133300781250e+00
6.576402187347412109e+00
6.087811470031738281e+00
5.594785213470458984e+00
5.099495410919189453e+00
4.603858947753906250e+00
4.109520435333251953e+00
3.617860317230224609e+00
3.130039691925048828e+00
2.647042274475097656e+00
2.169729232788085938e+00
1.698883533477783203e+00
1.235253095626831055e+00
7.795743942260742188e-01
3.325891494750976562e-01
-1.049528121948242188e-01
-5.322990417480468750e-01
-9.487094879150390625e-01
-1.353470802307128906e+00
-1.745912075042724609e+00
-2.125417470932006836e+00
-2.491438150405883789e+00
-2.843497276306152344e+00
-3.181191921234130859e+00
-3.504188776016235352e+00
-3.812220573425292969e+00
-4.105077743530273438e+00
-4.382601261138916016e+00
-4.644674301147460938e+00
-4.891216754913330078e+00
-5.122178554534912109e+00
-5.337538719177246094e+00
-5.537302494049072266e+00
-5.721498489379882812e+00
-5.890182495117187500e+00
-6.043436527252197266e+00
-6.181369781494140625e+00
-6.304118156433105469e+00
-6.411847114562988281e+00
-6.504747867584228516e+00
-6.583037376403808594e+00
-6.646959304809570312e+00
-6.696781635284423828e+00
-6.732789993286132812e+00
-6.755292415618896484e+00
-6.764612674713134766e+00
-6.761091709136962891e+00
-6.745082378387451172e+00
-6.716950416564941406e+00
-6.677073955535888672e+00
-6.625838756561279297e+00
-6.563640594482421875e+00
-6.490884780883789062e+00
-6.407983779907226562e+00
-6.315356731414794922e+00
-6.213428020477294922e+00
-6.102628231048583984e+00
-5.983391284942626953e+00
-5.856153964996337891e+00
-5.721356391906738281e+00
-5.579438686370849609e+00
-5.430842876434326172e+00
-5.276009559631347656e+00
-5.115378379821777344e+00
-4.949386596679687500e+00
-4.778469562530517578e+00
-4.603058815002441406e+00
-4.423581600189208984e+00
-4.240460395812988281e+00
-4.054111957550048828e+00
-3.864948511123657227e+00
-3.673374891281127930e+00
-3.479789257049560547e+00
-3.284582376480102539e+00
-3.088137149810791016e+00
-2.890827655792236328e+00
-2.693019866943359375e+00
-2.495070219039916992e+00
-2.297326326370239258e+00
-2.100125789642333984e+00
-1.903795838356018066e+00
-1.708653330802917480e+00
-1.515004873275756836e+00
-1.323146104812622070e+00
-1.133361577987670898e+00
-9.459248781204223633e-01
-7.610980272293090820e-01
-5.791317224502563477e-01
-4.002650976181030273e-01
-2.247256040573120117e-01
-5.272905528545379639e-02
1.155205518007278442e-01
2.798309028148651123e-01
4.400214552879333496e-01
5.959234237670898438e-01
7.473796010017395020e-01
8.942446112632751465e-01
1.036384463310241699e+00
1.175177574157714844e+00
1.330819725990295410e+00
1.583892345428466797e+00
2.091859340667724609e+00
3.030420303344726562e+00
4.504065513610839844e+00
6.495291709899902344e+00
8.863376617431640625e+00
1.137571239471435547e+01
1.375624847412109375e+01
1.573696041107177734e+01
1.710134315490722656e+01
1.771336555480957031e+01
1.752961349487304688e+01
1.659573364257812500e+01
1.503057098388671875e+01
1.300245666503906250e+01
1.070245552062988281e+01
8.318834304809570312e+00
6.016088485717773438e+00
3.920592784881591797e+00
2.113577842712402344e+00
6.310307979583740234e-01
-5.308616161346435547e-01
-1.406519412994384766e+00
-2.047094106674194336e+00
-2.498292446136474609e+00
-2.777388811111450195e+00
-2.869639635086059570e+00
-2.749636411666870117e+00
-2.408813714981079102e+00
-1.871094942092895508e+00
-1.194299459457397461e+00
-4.621834754943847656e-01
2.286963462829589844e-01
7.839250564575195312e-01
1.124827861785888672e+00
1.198498725891113281e+00
9.831633567810058594e-01
4.886527061462402344e-01
-2.473897933959960938e-01
-1.166316032409667969e+00
-2.196959495544433594e+00
-3.264556169509887695e+00
-4.298960685729980469e+00
-5.241295337677001953e+00
-6.048494338989257812e+00
-6.695447921752929688e+00
-7.174804687500000000e+00
-7.494802474975585938e+00
-7.675655364990234375e+00
-7.745045661926269531e+00
-7.733380794525146484e+00
-7.669536590576171875e+00
-7.577706336975097656e+00
-7.475617408752441406e+00
-7.374033451080322266e+00
-7.277278900146484375e+00
-7.184489727020263672e+00
-7.091278076171875000e+00
-6.991492271423339844e+00
-6.878802776336669922e+00
-6.747930049896240234e+00
-6.595378875732421875e+00
-6.419558525085449219e+00
-6.220344543457031250e+00
-5.998412609100341797e+00
-5.754815101623535156e+00
-5.491028308868408203e+00
-5.209142208099365234e+00
-4.911837577819824219e+00
-4.602109909057617188e+00
-4.282929420471191406e+00
-3.956986904144287109e+00
-3.626547813415527344e+00
-3.293361186981201172e+00
-2.958615303039550781e+00
-2.622938156127929688e+00
-2.286482334136962891e+00
-1.949137210845947266e+00
-1.610822439193725586e+00
-1.271761655807495117e+00
-9.326722621917724609e-01
-5.948238372802734375e-01
-2.599582672119140625e-01
6.988668441772460938e-02
3.925805091857910156e-01
7.061102390289306641e-01
1.008774995803833008e+00
1.299324274063110352e+00
1.576989173889160156e+00
1.841403722763061523e+00
2.092455625534057617e+00
2.330133199691772461e+00
2.554369926452636719e+00
2.764868974685668945e+00
2.960931301116943359e+00
3.141369342803955078e+00
3.304587602615356445e+00
3.448853015899658203e+00
3.572793960571289062e+00
3.676138401031494141e+00
3.760496616363525391e+00
3.829799890518188477e+00
3.890063762664794922e+00
3.948414087295532227e+00
4.011609077453613281e+00
4.084505081176757812e+00
4.169060707092285156e+00
4.264308929443359375e+00
4.367330551147460938e+00
4.474818229675292969e+00
4.584499359130859375e+00
4.695753097534179688e+00
4.809212684631347656e+00
4.925634384155273438e+00
5.044587135314941406e+00
5.163499832153320312e+00
5.277423858642578125e+00
5.379600048065185547e+00
5.462652683258056641e+00
5.519967079162597656e+00
5.546658039093017578e+00
5.539485931396484375e+00
5.495288372039794922e+00
5.408798694610595703e+00
5.272644996643066406e+00
5.081099033355712891e+00
4.834959030151367188e+00
4.543820381164550781e+00
4.225003242492675781e+00
3.900427818298339844e+00
3.592490434646606445e+00
3.319879293441772461e+00
3.094202756881713867e+00
2.917569875717163086e+00
2.781354904174804688e+00
2.667394399642944336e+00
2.552793502807617188e+00
2.417535543441772461e+00
2.251904487609863281e+00
2.060866117477416992e+00
1.864424705505371094e+00
1.693586468696594238e+00
1.581777334213256836e+00
1.554782390594482422e+00
1.624555468559265137e+00
1.788367033004760742e+00
2.030372619628906250e+00
2.323693275451660156e+00
2.633478641510009766e+00
2.921330928802490234e+00
3.150528430938720703e+00
3.290951013565063477e+00
3.322484493255615234e+00
3.236273050308227539e+00
3.034127235412597656e+00
2.726785182952880859e+00
2.331557989120483398e+00
1.869654417037963867e+00
1.363388061523437500e+00
8.334972858428955078e-01
2.968555688858032227e-01
-2.350252270698547363e-01
-7.560575008392333984e-01
-1.263883352279663086e+00
-1.757628679275512695e+00
-2.237220764160156250e+00
-2.704578399658203125e+00
-3.164545059204101562e+00
-3.623598098754882812e+00
-4.087178230285644531e+00
-4.558984756469726562e+00
-5.044592857360839844e+00
-5.557209014892578125e+00
-6.118164539337158203e+00
-6.744940757751464844e+00
-7.431472778320312500e+00
-8.138181686401367188e+00
-8.800769805908203125e+00
-9.348576545715332031e+00
-9.723021507263183594e+00
-9.892667770385742188e+00
-9.856263160705566406e+00
-9.628225326538085938e+00
-9.220483779907226562e+00
-8.640508651733398438e+00
-7.904806137084960938e+00
-7.050253868103027344e+00
-6.131103992462158203e+00
-5.204354286193847656e+00
-4.316022872924804688e+00
-3.497076988220214844e+00
-2.766019344329833984e+00
-2.131764411926269531e+00
-1.594592571258544922e+00
-1.145804882049560547e+00
-7.676362991333007812e-01
-4.345457553863525391e-01
-1.159009933471679688e-01
2.203400135040283203e-01
6.038637161254882812e-01
1.059885025024414062e+00
1.610191106796264648e+00
2.277254581451416016e+00
3.089216709136962891e+00
4.081215858459472656e+00
5.288256645202636719e+00
6.729925155639648438e+00
8.393793106079101562e+00
1.022521972656250000e+01
1.212721729278564453e+01
1.396910285949707031e+01
1.559713554382324219e+01
1.683414649963378906e+01
1.747042846679687500e+01
1.728559684753417969e+01
1.612242507934570312e+01
1.396290397644042969e+01
1.095268917083740234e+01
7.373346328735351562e+00
3.584837913513183594e+00
-4.122638702392578125e-02
-3.178537130355834961e+00
-5.582732200622558594e+00
-7.110438346862792969e+00
-7.726796627044677734e+00
-7.502837181091308594e+00
-6.602486133575439453e+00
-5.258937358856201172e+00
-3.738973379135131836e+00
-2.298092842102050781e+00
-1.137798786163330078e+00
-3.782724142074584961e-01
-5.250334739685058594e-02
-1.189546585083007812e-01
-4.846220016479492188e-01
-1.030460834503173828e+00
-1.634315133094787598e+00
-2.188959121704101562e+00
-2.613746166229248047e+00
-2.859565734863281250e+00
-2.908529043197631836e+00
-2.769976139068603516e+00
-2.473767757415771484e+00
-2.062330484390258789e+00
-1.583403348922729492e+00
-1.084516048431396484e+00
-6.091217994689941406e-01
-1.943755149841308594e-01
1.296167373657226562e-01
3.403089046478271484e-01
4.236412048339843750e-01
3.746857643127441406e-01
1.978719234466552734e-01
-9.276747703552246094e-02
-4.738047122955322266e-01
-9.139659404754638672e-01
-1.377129673957824707e+00
-1.826186656951904297e+00
-2.227048158645629883e+00
-2.552175998687744141e+00
-2.783006668090820312e+00
-2.910775423049926758e+00
-2.935774803161621094e+00
-2.865703582763671875e+00
-2.713857173919677734e+00
-2.497581720352172852e+00
-2.237070560455322266e+00
-1.954288005828857422e+00
-1.671720266342163086e+00
-1.410844922065734863e+00
-1.190339922904968262e+00
-1.024155497550964355e+00
-9.198508262634277344e-01
-8.778123855590820312e-01
-8.916966915130615234e-01
-9.499146938323974609e-01
-1.037661790847778320e+00
-1.139004707336425781e+00
-1.238680601119995117e+00
-1.323362112045288086e+00
-1.382398962974548340e+00
-1.408324718475341797e+00
-1.397277116775512695e+00
-1.349097728729248047e+00
-1.266885995864868164e+00
-1.156152963638305664e+00
-1.024041414260864258e+00
-8.789554834365844727e-01
-7.304292917251586914e-01
-5.887639522552490234e-01
-4.642282724380493164e-01
-3.659778833389282227e-01
-3.008916378021240234e-01
-2.725176811218261719e-01
-2.804383039474487305e-01
-3.203387260437011719e-01
-3.847920894622802734e-01
-4.644749164581298828e-01
-5.494182109832763672e-01
-6.300795078277587891e-01
-6.982302665710449219e-01
-7.476291060447692871e-01
-7.744000554084777832e-01
-7.771067619323730469e-01
-7.565584182739257812e-01
-7.154083251953125000e-01
-6.576610207557678223e-01
-5.881801843643188477e-01
-5.122057795524597168e-01
-4.349085688591003418e-01
-3.610074520111083984e-01
-2.944236993789672852e-01
-2.379990220069885254e-01
-1.933355331420898438e-01
-1.607519388198852539e-01
-1.393374800682067871e-01
-1.271145343780517578e-01
-1.213310956954956055e-01
-1.188651323318481445e-01
-1.166389882564544678e-01
-1.119399964809417725e-01
-1.026188731193542480e-01
-8.717501163482666016e-02
-6.475467979907989502e-02
-3.510983288288116455e-02
1.463159918785095215e-03
4.422521591186523438e-02
9.212485700845718384e-02
1.439086347818374634e-01
1.981973797082901001e-01
2.535441517829895020e-01
3.084901869297027588e-01
3.616392612457275391e-01
4.117625355720520020e-01
4.579184055328369141e-01
4.995405077934265137e-01
5.364574193954467773e-01
5.688489675521850586e-01
5.971691608428955078e-01
6.220704317092895508e-01
6.443302631378173828e-01
6.647409200668334961e-01
6.839503049850463867e-01
7.022949457168579102e-01
7.197028398513793945e-01
7.357195615768432617e-01
7.496145963668823242e-01
7.604957818984985352e-01
7.674170732498168945e-01
7.694789171218872070e-01
7.659065723419189453e-01
7.561029791831970215e-01
7.396967411041259766e-01
7.166264057159423828e-01
6.872641444206237793e-01
6.525028944015502930e-01
6.137365102767944336e-01
5.727327466011047363e-01
5.314402580261230469e-01
4.917888641357421875e-01
4.555405676364898682e-01
4.242109656333923340e-01
3.990375101566314697e-01
3.809316754341125488e-01
3.703522086143493652e-01
3.671359717845916748e-01
3.704056143760681152e-01
3.786210417747497559e-01
3.897413611412048340e-01
4.014273881912231445e-01
4.112639725208282471e-01
4.170191287994384766e-01
4.169223308563232422e-01
4.099175930023193359e-01
3.958473801612854004e-01
3.755117058753967285e-01
3.505776524543762207e-01
3.233748674392700195e-01
2.966400384902954102e-01
2.732681632041931152e-01
2.561098933219909668e-01
2.478047162294387817e-01
2.505815029144287109e-01
2.659522891044616699e-01
2.942749559879302979e-01
3.342682123184204102e-01
3.826969563961029053e-01
4.344435930252075195e-01
4.830102324485778809e-01
5.213540792465209961e-01
5.429112911224365234e-01
5.426301956176757812e-01
5.178197026252746582e-01
4.686562716960906982e-01
3.982389867305755615e-01
3.121649622917175293e-01
2.177286148071289062e-01
1.229213550686836243e-01
3.540371358394622803e-02
-3.840677440166473389e-02
-9.400002658367156982e-02
-1.290676742792129517e-01
-1.433939635753631592e-01
-1.384896337985992432e-01
-1.172259449958801270e-01
-8.356654644012451172e-02
-4.223304986953735352e-02
1.816332340240478516e-03
4.396709799766540527e-02
8.039332926273345947e-02
1.082994937896728516e-01
1.260153800249099731e-01
1.330159306526184082e-01
1.298579126596450806e-01
1.179762333631515503e-01
9.937821328639984131e-02
7.637082040309906006e-02
5.136011913418769836e-02
2.664892375469207764e-02
4.225045442581176758e-03
-1.438876986503601074e-02
-2.819795161485671997e-02
-3.672520071268081665e-02
-3.993422538042068481e-02
-3.813516348600387573e-02
-3.192687034606933594e-02
-2.217446267604827881e-02
-9.993549436330795288e-03
3.269214183092117310e-03
1.606168970465660095e-02
2.668700739741325378e-02
3.343169391155242920e-02
3.475013375282287598e-02
2.947303652763366699e-02
1.701332256197929382e-02
-2.454213798046112061e-03
-2.788646146655082703e-02
-5.742189660668373108e-02
-8.862069249153137207e-02
-1.188289597630500793e-01
-1.455657929182052612e-01
-1.668387949466705322e-01
-1.813270151615142822e-01
-1.884414851665496826e-01
-1.883142292499542236e-01
-1.817428916692733765e-01
-1.700895130634307861e-01
-1.551275402307510376e-01
-1.388355195522308350e-01
-1.231528297066688538e-01
-1.097373515367507935e-01
-9.977079182863235474e-02
-9.384970366954803467e-02
-9.198208898305892944e-02
-9.366996586322784424e-02
-9.803454577922821045e-02
-1.039492785930633545e-01
-1.101710870862007141e-01
-1.154865175485610962e-01
-1.188845783472061157e-01
-1.197163462638854980e-01
-1.177689433097839355e-01
-1.132365018129348755e-01
-1.066289618611335754e-01
-9.865614771842956543e-02
-9.012935310602188110e-02
-8.190775662660598755e-02
-7.485114037990570068e-02
-6.974118202924728394e-02
-6.719525158405303955e-02
-6.760363280773162842e-02
-7.109089195728302002e-02
-7.749354839324951172e-02
-8.636005967855453491e-02
-9.698536992073059082e-02
-1.084832549095153809e-01
-1.198857352137565613e-01
-1.302448511123657227e-01
-1.387137472629547119e-01
-1.446035653352737427e-01
-1.474242359399795532e-01
-1.469103693962097168e-01
-1.430214792490005493e-01
-1.359186172485351562e-01
-1.259386837482452393e-01
-1.135837733745574951e-01
-9.952266514301300049e-02
-8.457607030868530273e-02
-6.966561079025268555e-02
-5.573853477835655212e-02
-4.367183893918991089e-02
-3.414607048034667969e-02
-2.751026675105094910e-02
-2.369061857461929321e-02
-2.218447811901569366e-02
-2.214886806905269623e-02
-2.257074043154716492e-02
-2.247776836156845093e-02
-2.112017944455146790e-02
-1.806883886456489563e-02
-1.322397869080305099e-02
-6.789324805140495300e-03
7.302910089492797852e-04
8.539562113583087921e-03
1.565644890069961548e-02
2.112092263996601105e-02
2.421495690941810608e-02
2.458770573139190674e-02
2.226032502949237823e-02
1.756301708519458771e-02
1.107423193752765656e-02
3.580953460186719894e-03
-3.983625210821628571e-03
-1.065869163721799850e-02
-1.560941524803638458e-02
-1.826163567602634430e-02
-1.836398616433143616e-02
-1.597433537244796753e-02
-1.141204312443733215e-02
-5.190558731555938721e-03
2.072509378194808960e-03
9.747058153152465820e-03
1.726359501481056213e-02
2.415791712701320648e-02
3.007846698164939880e-02
3.477157279849052429e-02
3.809035569429397583e-02
4.003830254077911377e-02
4.079301655292510986e-02
4.066572710871696472e-02
4.000958427786827087e-02
3.912917524576187134e-02
3.824171423912048340e-02
3.748903423547744751e-02
3.695810586214065552e-02
3.668190538883209229e-02
3.663603588938713074e-02
3.676131740212440491e-02
3.700660169124603271e-02
3.735989704728126526e-02
3.784642741084098816e-02
3.849420323967933655e-02
3.929444402456283569e-02
4.018391296267509460e-02
4.105053469538688660e-02
4.174879193305969238e-02
4.210925102233886719e-02
4.194808378815650940e-02
4.110726341605186462e-02
3.953272849321365356e-02
3.734312206506729126e-02
3.483437374234199524e-02
3.242799639701843262e-02
3.060685284435749054e-02
2.984311804175376892e-02
3.050289861857891083e-02
3.274967148900032043e-02
3.648361191153526306e-02
4.133433103561401367e-02
4.671280458569526672e-02
5.190823972225189209e-02
5.619427561759948730e-02
5.892469733953475952e-02
5.961874872446060181e-02
5.802939832210540771e-02
5.418524891138076782e-02
4.839222878217697144e-02
4.117387533187866211e-02
3.316927701234817505e-02
2.503886073827743530e-02
1.739225350320339203e-02
1.072605140507221222e-02
5.372131243348121643e-03
1.463733613491058350e-03
-1.066297292709350586e-03
-2.442177385091781616e-03
-2.984516322612762451e-03
-3.068877384066581726e-03
-3.094483166933059692e-03
-3.449248149991035461e-03
-4.474097862839698792e-03
-6.416370160877704620e-03
-9.372368454933166504e-03
-1.325093209743499756e-02
-1.778590120375156403e-02
-2.259408682584762573e-02
-2.725603803992271423e-02
-3.139354288578033447e-02
-3.472577407956123352e-02
-3.710315376520156860e-02
-3.851696103811264038e-02
-3.907136991620063782e-02
-3.892448171973228455e-02
-3.822357580065727234e-02
-3.705174103379249573e-02
-3.540366888046264648e-02
-3.320629522204399109e-02
-3.036338463425636292e-02
-2.678152546286582947e-02
-2.237872034311294556e-02
-1.712215691804885864e-02
-1.110198721289634705e-02
-4.586050286889076233e-03
1.974709331989288330e-03
7.978921756148338318e-03
1.275049336254596710e-02
1.566197350621223450e-02
1.628088392317295074e-02
1.449657231569290161e-02
1.058475673198699951e-02
5.187429487705230713e-03
-7.840031757950782776e-04
-6.296026520431041718e-03
-1.035836245864629745e-02
-1.217904686927795410e-02
-1.130091398954391479e-02
-7.704019546508789062e-03
-1.813907176256179810e-03
5.614379420876502991e-03
1.367035694420337677e-02
2.144353277981281281e-02
2.814392745494842529e-02
3.319682925939559937e-02
3.631292283535003662e-02
3.752987086772918701e-02
3.722543269395828247e-02
3.609828278422355652e-02
3.509412705898284912e-02
3.525125235319137573e-02
3.747908771038055420e-02
4.234320297837257385e-02
4.994068294763565063e-02
5.988926813006401062e-02
7.139933854341506958e-02
8.339759707450866699e-02
9.467640519142150879e-02
1.040332391858100891e-01
1.103835850954055786e-01
1.128599345684051514e-01
1.108932644128799438e-01
1.042477488517761230e-01
9.299536049365997314e-02
7.746413350105285645e-02
5.823150277137756348e-02
3.619054704904556274e-02
1.259101182222366333e-02
-1.106091216206550598e-02
-3.321520239114761353e-02
-5.248534306883811951e-02
-6.777907907962799072e-02
-7.834391295909881592e-02
-8.376445621252059937e-02
-8.396058529615402222e-02
-7.919263839721679688e-02
-7.004633545875549316e-02
-5.738848447799682617e-02
-4.230616986751556396e-02
-2.603458240628242493e-02
-9.884044528007507324e-03
4.823781549930572510e-03
1.682647317647933960e-02
2.501665428280830383e-02
2.856763452291488647e-02
2.706848084926605225e-02
2.061593532562255859e-02
9.817346930503845215e-03
-4.293985664844512939e-03
-2.039472013711929321e-02
-3.702504187822341919e-02
-5.273627117276191711e-02
-6.621191650629043579e-02
-7.635326683521270752e-02
-8.233126997947692871e-02
-8.362460136413574219e-02
-8.006986975669860840e-02
-7.190531492233276367e-02
-5.976374447345733643e-02
-4.461542889475822449e-02
-2.769438177347183228e-02
-1.040959730744361877e-02
5.789659917354583740e-03
1.960679888725280762e-02
3.010534495115280151e-02
3.683758527040481567e-02
3.983159363269805908e-02
3.947889059782028198e-02
3.641093522310256958e-02
3.140693157911300659e-02
2.533280104398727417e-02
1.908783614635467529e-02
1.351887732744216919e-02
9.290270507335662842e-03
6.760492920875549316e-03
5.921967327594757080e-03
6.408281624317169189e-03
7.565774023532867432e-03
8.601352572441101074e-03
8.769430220127105713e-03
7.511399686336517334e-03
4.495680332183837891e-03
-4.134848713874816895e-04
-7.195681333541870117e-03
-1.569119095802307129e-02
-2.559848129749298096e-02
-3.646706044673919678e-02
-4.771076887845993042e-02
-5.866482481360435486e-02
-6.867840886116027832e-02
-7.719641923904418945e-02
-8.379295468330383301e-02
-8.817081898450851440e-02
-9.015610814094543457e-02
-8.969415724277496338e-02
-8.685540407896041870e-02
-8.186187595129013062e-02
-7.511388510465621948e-02
-6.717987358570098877e-02
-5.874306708574295044e-02
-5.053339898586273193e-02
-4.326501488685607910e-02
-3.756978362798690796e-02
