-0.000000000000000000e+00
5.885660648345947266e-04
4.975664895027875900e-03
2.104152180254459381e-02
6.104795262217521667e-02
1.398406922817230225e-01
2.730178534984588623e-01
4.738966822624206543e-01
7.482550144195556641e-01
1.088659524917602539e+00
1.471827626228332520e+00
1.860898494720458984e+00
2.211558103561401367e+00
2.479628562927246094e+00
2.628039836883544922e+00
2.631871223449707031e+00
2.480453252792358398e+00
2.175944328308105469e+00
1.730470895767211914e+00
1.165640592575073242e+00
5.140397548675537109e-01
-1.818362474441528320e-01
-8.747916221618652344e-01
-1.519155025482177734e+00
-2.075220584869384766e+00
-2.511919975280761719e+00
-2.808846712112426758e+00
-2.958576202392578125e+00
-2.969950914382934570e+00
-2.871348142623901367e+00
-2.710522174835205078e+00
-2.547749519348144531e+00
-2.442955017089843750e+00
-2.441738128662109375e+00
-2.565892696380615234e+00
-2.812585115432739258e+00
-3.163096904754638672e+00
-3.595239400863647461e+00
-4.089076519012451172e+00
-4.621800422668457031e+00
-5.159530639648437500e+00
-5.656369209289550781e+00
-6.064105987548828125e+00
-6.349063396453857422e+00
-6.506080627441406250e+00
-6.558920860290527344e+00
-6.547732353210449219e+00
-6.513840675354003906e+00
-6.488225936889648438e+00
-6.483962059020996094e+00
-6.493513107299804688e+00
-6.491966247558593750e+00
-6.444190025329589844e+00
-6.312656402587890625e+00
-6.064007759094238281e+00
-5.673213958740234375e+00
-5.124445915222167969e+00
-4.408819198608398438e+00
-3.521028518676757812e+00
-2.458327293395996094e+00
-1.223120212554931641e+00
1.743440628051757812e-01
1.716868877410888672e+00
3.382336616516113281e+00
5.140809059143066406e+00
6.946606159210205078e+00
8.733908653259277344e+00
1.042205619812011719e+01
1.192781639099121094e+01
1.317961883544921875e+01
1.413006973266601562e+01
1.476271533966064453e+01
1.509090900421142578e+01
1.515074348449707031e+01
1.499329853057861328e+01
1.468051624298095703e+01
1.428275203704833984e+01
1.387211036682128906e+01
1.351092910766601562e+01
1.324108982086181641e+01
1.307895088195800781e+01
1.301614189147949219e+01
1.302353668212890625e+01
1.305599212646484375e+01
1.305745410919189453e+01
1.296700572967529297e+01
1.272582626342773438e+01
1.228441905975341797e+01
1.160899066925048828e+01
1.068530845642089844e+01
9.518317222595214844e+00
8.127102851867675781e+00
6.537572860717773438e+00
4.777787208557128906e+00
2.878820896148681641e+00
8.784575462341308594e-01
-1.177021026611328125e+00
-3.234342098236083984e+00
-5.237475872039794922e+00
-7.135252952575683594e+00
-8.892303466796875000e+00
-1.049883460998535156e+01
-1.197178173065185547e+01
-1.334249687194824219e+01
-1.463228130340576172e+01
-1.582578659057617188e+01
-1.685997772216796875e+01
-1.763961410522460938e+01
-1.807050514221191406e+01
-1.809103393554687500e+01
-1.768794631958007812e+01
-1.689428901672363281e+01
-1.577578258514404297e+01
-1.441253089904785156e+01
-1.287863731384277344e+01
-1.122117614746093750e+01
-9.443774223327636719e+00
-7.505221843719482422e+00
-5.344208717346191406e+00
-2.925562381744384766e+00
-2.812563180923461914e-01
2.476667881011962891e+00
5.170213699340820312e+00
7.583369255065917969e+00
9.493994712829589844e+00
1.070439815521240234e+01
1.106590461730957031e+01
1.049402332305908203e+01
8.978899955749511719e+00
6.600238800048828125e+00
3.539682865142822266e+00
6.858897209167480469e-02
-3.495211124420166016e+00
-6.843451499938964844e+00
-9.722524642944335938e+00
-1.195631122589111328e+01
-1.345087814331054688e+01
-1.418829727172851562e+01
-1.421319770812988281e+01
-1.361593914031982422e+01
-1.251566600799560547e+01
-1.104451560974121094e+01
-9.334503173828125000e+00
-7.507724761962890625e+00
-5.668706417083740234e+00
-3.899247169494628906e+00
-2.257070541381835938e+00
-7.777426242828369141e-01
5.217189788818359375e-01
1.638458132743835449e+00
2.579616069793701172e+00
3.359619617462158203e+00
3.999540805816650391e+00
4.527511596679687500e+00
4.977232933044433594e+00
5.382417678833007812e+00
5.768927574157714844e+00
6.148791790008544922e+00
6.518895149230957031e+00
6.864386558532714844e+00
7.165043354034423828e+00
7.402188301086425781e+00
7.564030170440673828e+00
7.648118495941162109e+00
7.660729885101318359e+00
7.613914489746093750e+00
7.521351814270019531e+00
7.394536972045898438e+00
7.240620613098144531e+00
7.062242507934570312e+00
6.858739852905273438e+00
6.627627372741699219e+00
6.365543842315673828e+00
6.068787574768066406e+00
5.734006404876708984e+00
5.359360694885253906e+00
4.945878505706787109e+00
4.498392105102539062e+00
4.025722503662109375e+00
3.540100097656250000e+00
3.055887699127197266e+00
2.587806224822998047e+00
2.148745536804199219e+00
1.747280597686767578e+00
1.385734319686889648e+00
1.059973716735839844e+00
7.610392570495605469e-01
4.775327444076538086e-01
1.977672576904296875e-01
-8.857440948486328125e-02
-3.890280723571777344e-01
-7.070903778076171875e-01
-1.041502118110656738e+00
-1.386436700820922852e+00
-1.732504367828369141e+00
-2.068219423294067383e+00
-2.381525039672851562e+00
-2.661117553710937500e+00
-2.897778034210205078e+00
-3.086032152175903320e+00
-3.225966215133666992e+00
-3.324657678604125977e+00
-3.396548986434936523e+00
-3.462393760681152344e+00
-3.547345161437988281e+00
-3.678816318511962891e+00
-3.883323669433593750e+00
-4.181394100189208984e+00
-4.581926345825195312e+00
-5.078832626342773438e+00
-5.651462554931640625e+00
-6.268225669860839844e+00
-6.891865730285644531e+00
-7.484941959381103516e+00
-8.014003753662109375e+00
-8.451086044311523438e+00
-8.773147583007812500e+00
-8.961723327636718750e+00
-9.003519058227539062e+00
-8.891024589538574219e+00
-8.622932434082031250e+00
-8.204710960388183594e+00
-7.648923873901367188e+00
-6.974867820739746094e+00
-6.207254409790039062e+00
-5.373600482940673828e+00
-4.500742435455322266e+00
-3.611649990081787109e+00
-2.723606109619140625e+00
-1.848344326019287109e+00
-9.940187931060791016e-01
-1.679291725158691406e-01
6.215691566467285156e-01
1.364929676055908203e+00
2.052859783172607422e+00
2.678160905838012695e+00
3.236417293548583984e+00
3.725060939788818359e+00
4.142239570617675781e+00
4.487248420715332031e+00
4.762391090393066406e+00
4.974493503570556641e+00
5.135091781616210938e+00
5.259813308715820312e+00
5.366951942443847656e+00
5.474114894866943359e+00
5.593294143676757812e+00
5.727438926696777344e+00
5.871812820434570312e+00
6.020004272460937500e+00
6.170398712158203125e+00
6.328794479370117188e+00
6.506746292114257812e+00
6.717866420745849609e+00
6.973181724548339844e+00
7.275897026062011719e+00
7.617678642272949219e+00
7.978549003601074219e+00
8.329465866088867188e+00
8.636346817016601562e+00
8.867805480957031250e+00
9.008825302124023438e+00
9.077033996582031250e+00
9.131760597229003906e+00
9.263084411621093750e+00
9.558246612548828125e+00
1.006187534332275391e+01
1.075156688690185547e+01
1.153750705718994141e+01
1.228150844573974609e+01
1.282594013214111328e+01
1.302322673797607422e+01
1.275899410247802734e+01
1.196652889251708984e+01
1.063492488861083984e+01
8.813424110412597656e+00
6.609623908996582031e+00
4.177037239074707031e+00
1.692059993743896484e+00
-6.738133430480957031e-01
-2.779241085052490234e+00
-4.529869079589843750e+00
-5.883653163909912109e+00
-6.846664905548095703e+00
-7.464675903320312500e+00
-7.812918186187744141e+00
-7.983045101165771484e+00
-8.067976951599121094e+00
-8.148424148559570312e+00
-8.284543037414550781e+00
-8.513648033142089844e+00
-8.852636337280273438e+00
-9.301663398742675781e+00
-9.845582962036132812e+00
-1.045379066467285156e+01
-1.108259010314941406e+01
-1.168172740936279297e+01
-1.220244407653808594e+01
-1.260441207885742188e+01
-1.286105918884277344e+01
-1.296326065063476562e+01
-1.292112827301025391e+01
-1.276305580139160156e+01
-1.252984333038330078e+01
-1.226370239257812500e+01
-1.199711704254150391e+01
-1.174771404266357422e+01
-1.152107143402099609e+01
-1.131745147705078125e+01
-1.113546562194824219e+01
-1.096962928771972656e+01
-1.080544185638427734e+01
-1.061710834503173828e+01
-1.037030601501464844e+01
-1.003279495239257812e+01
-9.594856262207031250e+00
-9.089606285095214844e+00
-8.593424797058105469e+00
-8.199616432189941406e+00
-7.981111526489257812e+00
-7.963163375854492188e+00
-8.114305496215820312e+00
-8.353508949279785156e+00
-8.569022178649902344e+00
-8.642720222473144531e+00
-8.473017692565917969e+00
-7.991567611694335938e+00
-7.171751976013183594e+00
-6.029180526733398438e+00
-4.615654945373535156e+00
-3.008472442626953125e+00
-1.297414302825927734e+00
4.279236793518066406e-01
2.088440418243408203e+00
3.622442245483398438e+00
4.988925933837890625e+00
6.167580127716064453e+00
7.156303405761718750e+00
7.967208385467529297e+00
8.621907234191894531e+00
9.146759986877441406e+00
9.568776130676269531e+00
9.912829399108886719e+00
1.020026683807373047e+01
1.044842052459716797e+01
1.067047214508056641e+01
1.087537288665771484e+01
1.106771564483642578e+01
1.124770927429199219e+01
1.141149044036865234e+01
1.155195617675781250e+01
1.166046905517578125e+01
1.172905540466308594e+01
1.175182342529296875e+01
1.172514533996582031e+01
1.164749336242675781e+01
1.151916694641113281e+01
1.134162235260009766e+01
1.111721611022949219e+01
1.084996318817138672e+01
1.054625988006591797e+01
1.021461009979248047e+01
9.864700317382812500e+00
9.506395339965820312e+00
9.148801803588867188e+00
8.799396514892578125e+00
8.462429046630859375e+00
8.133801460266113281e+00
7.793063640594482422e+00
7.403744697570800781e+00
6.929601192474365234e+00
6.354634284973144531e+00
5.691354751586914062e+00
4.975522041320800781e+00
4.253000259399414062e+00
3.564228057861328125e+00
2.932690620422363281e+00
2.363699197769165039e+00
1.853081703186035156e+00
1.399349451065063477e+00
1.012803912162780762e+00
7.157745361328125000e-01
5.325901508331298828e-01
4.751527905464172363e-01
5.335519313812255859e-01
6.801129579544067383e-01
8.837753534317016602e-01
1.119998693466186523e+00
1.369443058967590332e+00
1.612208843231201172e+00
1.825171232223510742e+00
1.983929157257080078e+00
2.066384792327880859e+00
2.055191278457641602e+00
1.939061164855957031e+00
1.713988304138183594e+00
1.384623527526855469e+00
9.651343822479248047e-01
4.786088466644287109e-01
-4.557895660400390625e-02
-5.760297775268554688e-01
-1.083966255187988281e+00
-1.547118425369262695e+00
-1.952206611633300781e+00
-2.295739173889160156e+00
-2.583114624023437500e+00
-2.826121330261230469e+00
-3.039686203002929688e+00
-3.240684032440185547e+00
-3.450065374374389648e+00
-3.692411184310913086e+00
-3.987860202789306641e+00
-4.342780590057373047e+00
-4.746907711029052734e+00
-5.175705909729003906e+00
-5.594991207122802734e+00
-5.967472076416015625e+00
-6.259874820709228516e+00
-6.448743820190429688e+00
-6.523226737976074219e+00
-6.482661247253417969e+00
-6.328659534454345703e+00
-6.056461811065673828e+00
-5.654730796813964844e+00
-5.117548942565917969e+00
-4.459390640258789062e+00
-3.721587181091308594e+00
-2.967915058135986328e+00
-2.273488759994506836e+00
-1.711491584777832031e+00
-1.339594841003417969e+00
-1.187658786773681641e+00
-1.251055717468261719e+00
-1.492953300476074219e+00
-1.853687286376953125e+00
-2.262243747711181641e+00
-2.646293163299560547e+00
-2.940945148468017578e+00
-3.098072528839111328e+00
-3.094874143600463867e+00
-2.937422513961791992e+00
-2.657153367996215820e+00
-2.301646232604980469e+00
-1.923489093780517578e+00
-1.571760654449462891e+00
-1.287262201309204102e+00
-1.099692821502685547e+00
-1.026247501373291016e+00
-1.072339057922363281e+00
-1.233561992645263672e+00
-1.496728897094726562e+00
-1.839663982391357422e+00
-2.231851577758789062e+00
-2.637405157089233398e+00
-3.019764900207519531e+00
-3.346725940704345703e+00
-3.594540119171142578e+00
-3.750197172164916992e+00
-3.811637401580810547e+00
-3.786399364471435547e+00
-3.689353227615356445e+00
-3.539913892745971680e+00
-3.359028816223144531e+00
-3.166310310363769531e+00
-2.977745294570922852e+00
-2.804348945617675781e+00
-2.651860952377319336e+00
-2.521238327026367188e+00
-2.409587860107421875e+00
-2.311337947845458984e+00
-2.219557762145996094e+00
-2.127263784408569336e+00
-2.028557300567626953e+00
-1.919478535652160645e+00
-1.798432350158691406e+00
-1.666053771972656250e+00
-1.524558782577514648e+00
-1.376830935478210449e+00
-1.225573539733886719e+00
-1.072775244712829590e+00
-9.196230173110961914e-01
-7.668464779853820801e-01
-6.152858734130859375e-01
-4.663140177726745605e-01
-3.217956423759460449e-01
-1.837014555931091309e-01
-5.384743213653564453e-02
6.599879264831542969e-02
1.738569736480712891e-01
2.675366997718811035e-01
3.451594114303588867e-01
4.060888290405273438e-01
4.518438577651977539e-01
4.864306449890136719e-01
5.158259868621826172e-01
5.468518733978271484e-01
5.858433246612548828e-01
6.375091075897216797e-01
7.044095993041992188e-01
7.872362136840820312e-01
8.856810331344604492e-01
9.992630481719970703e-01
1.127395868301391602e+00
1.268750429153442383e+00
1.420656204223632812e+00
1.579023599624633789e+00
1.738883495330810547e+00
1.895395874977111816e+00
2.044661521911621094e+00
2.183645725250244141e+00
2.309509277343750000e+00
2.419326305389404297e+00
2.510647296905517578e+00
2.582394599914550781e+00
2.635271310806274414e+00
2.671483516693115234e+00
2.694233655929565430e+00
2.707450389862060547e+00
2.715704441070556641e+00
2.723859071731567383e+00
2.736241340637207031e+00
2.755733013153076172e+00
2.783308506011962891e+00
2.818090438842773438e+00
2.857831954956054688e+00
2.899872303009033203e+00
2.942298889160156250e+00
2.984800577163696289e+00
3.028897762298583984e+00
3.077075958251953125e+00
3.130628824234008789e+00
3.187413692474365234e+00
3.241250038146972656e+00
3.283253908157348633e+00
3.303959369659423828e+00
3.295196533203125000e+00
3.251336812973022461e+00
3.169805049896240234e+00
3.051068544387817383e+00
2.898506879806518555e+00
2.718246221542358398e+00
2.518658638000488281e+00
2.309335708618164062e+00
2.099701881408691406e+00
1.897677183151245117e+00
1.708791494369506836e+00
1.535966396331787109e+00
1.379859805107116699e+00
1.239491939544677734e+00
1.112989306449890137e+00
9.984471797943115234e-01
8.947719335556030273e-01
8.021519184112548828e-01
7.221075296401977539e-01
6.577283143997192383e-01
6.150519847869873047e-01
6.067113876342773438e-01
6.594241261482238770e-01
8.228468298912048340e-01
1.167167425155639648e+00
1.759932994842529297e+00
2.633809804916381836e+00
3.765203475952148438e+00
5.071759700775146484e+00
6.426737308502197266e+00
7.684257507324218750e+00
8.707004547119140625e+00
9.388750076293945312e+00
9.667368888854980469e+00
9.527795791625976562e+00
8.997181892395019531e+00
8.135172843933105469e+00
7.021909713745117188e+00
5.745906829833984375e+00
4.393324851989746094e+00
3.039593696594238281e+00
1.743960380554199219e+00
5.470662117004394531e-01
-5.289072990417480469e-01
-1.478183269500732422e+00
-2.308047294616699219e+00
-3.034862041473388672e+00
-3.680177211761474609e+00
-4.267424583435058594e+00
-4.819151878356933594e+00
-5.354340553283691406e+00
-5.885585784912109375e+00
-6.416718006134033203e+00
-6.942017555236816406e+00
-7.447824001312255859e+00
-7.916227340698242188e+00
-8.329517364501953125e+00
-8.673891067504882812e+00
-8.941501617431640625e+00
-9.130817413330078125e+00
-9.245798110961914062e+00
-9.294377326965332031e+00
-9.286810874938964844e+00
-9.234565734863281250e+00
-9.149951934814453125e+00
-9.045764923095703125e+00
-8.934149742126464844e+00
-8.824656486511230469e+00
-8.721948623657226562e+00
-8.623727798461914062e+00
-8.519752502441406250e+00
-8.392992019653320312e+00
-8.223133087158203125e+00
-7.991484165191650391e+00
-7.685698986053466797e+00
-7.302912235260009766e+00
-6.850645065307617188e+00
-6.345730781555175781e+00
-5.811857223510742188e+00
-5.275943756103515625e+00
-4.763696193695068359e+00
-4.295325279235839844e+00
-3.882513761520385742e+00
-3.527364730834960938e+00
-3.223503351211547852e+00
-2.958529233932495117e+00
-2.716756820678710938e+00
-2.481773376464843750e+00
-2.238834857940673828e+00
-1.977037429809570312e+00
-1.690852642059326172e+00
-1.380500555038452148e+00
-1.051064014434814453e+00
-7.107791900634765625e-01
-3.690898418426513672e-01
-3.491640090942382812e-02
2.846643924713134766e-01
5.852732658386230469e-01
8.655264377593994141e-01
1.126707315444946289e+00
1.371916532516479492e+00
1.604967832565307617e+00
1.829309701919555664e+00
2.047219991683959961e+00
2.259424686431884766e+00
2.465131759643554688e+00
2.662384510040283203e+00
2.848634243011474609e+00
3.021378517150878906e+00
3.178703308105468750e+00
3.319611310958862305e+00
3.444075345993041992e+00
3.552874088287353516e+00
3.647413969039916992e+00
3.729666948318481445e+00
3.802129507064819336e+00
3.867653846740722656e+00
3.929138183593750000e+00
3.989175796508789062e+00
4.049789905548095703e+00
4.112229347229003906e+00
4.176743507385253906e+00
4.242470264434814453e+00
4.307642459869384766e+00
4.370028495788574219e+00
4.427335262298583984e+00
4.477510929107666016e+00
4.519038677215576172e+00
4.551093578338623047e+00
4.573403835296630859e+00
4.585960865020751953e+00
4.588761329650878906e+00
4.581611633300781250e+00
4.563977718353271484e+00
4.534906864166259766e+00
4.493050575256347656e+00
4.436853408813476562e+00
4.364922046661376953e+00
4.276456356048583984e+00
4.171604633331298828e+00
4.051636695861816406e+00
3.918850660324096680e+00
3.776259183883666992e+00
3.627134799957275391e+00
3.474457740783691406e+00
3.320455789566040039e+00
3.166483163833618164e+00
3.013205051422119141e+00
2.860887050628662109e+00
2.709641456604003906e+00
2.559475421905517578e+00
2.410192012786865234e+00
2.261450052261352539e+00
2.113084793090820312e+00
1.965536713600158691e+00
1.820221424102783203e+00
1.679545044898986816e+00
1.546257138252258301e+00
1.422246694564819336e+00
1.307393789291381836e+00
1.199087977409362793e+00
1.092632532119750977e+00
9.824076890945434570e-01
8.635026216506958008e-01
7.333265542984008789e-01
5.925834178924560547e-01
4.452106952667236328e-01
2.973235249519348145e-01
1.555696725845336914e-01
2.544766664505004883e-02
-8.990827202796936035e-02
-1.901813298463821411e-01
-2.775846421718597412e-01
-3.561205267906188965e-01
-4.307004809379577637e-01
-5.062564015388488770e-01
-5.868084430694580078e-01
-6.746057271957397461e-01
-7.697564959526062012e-01
-8.706523776054382324e-01
-9.750238656997680664e-01
-1.081251025199890137e+00
-1.189707398414611816e+00
-1.304071545600891113e+00
-1.432346701622009277e+00
-1.586622714996337891e+00
-1.780329704284667969e+00
-2.023344516754150391e+00
-2.317638874053955078e+00
-2.655614376068115234e+00
-3.019864797592163086e+00
-3.382319688796997070e+00
-3.704394578933715820e+00
-3.941608667373657227e+00
-4.052509307861328125e+00
-4.007647514343261719e+00
-3.794727563858032227e+00
-3.419627428054809570e+00
-2.905322790145874023e+00
-2.289759159088134766e+00
-1.622106790542602539e+00
-9.573922753334045410e-01
-3.507555723190307617e-01
1.473536491394042969e-01
4.941573143005371094e-01
6.570285558700561523e-01
6.183985471725463867e-01
3.796225786209106445e-01
-4.376506805419921875e-02
-6.313710808753967285e-01
-1.357909917831420898e+00
-2.179694414138793945e+00
-3.020351648330688477e+00
-3.771939754486083984e+00
-4.315591812133789062e+00
-4.552193641662597656e+00
-4.428764343261718750e+00
-3.949859619140625000e+00
-3.171922445297241211e+00
-2.186633825302124023e+00
-1.101638555526733398e+00
-2.384614944458007812e-02
9.532487392425537109e-01
1.758252382278442383e+00
2.346685647964477539e+00
2.702110528945922852e+00
2.833899736404418945e+00
2.772196769714355469e+00
2.560960531234741211e+00
2.250271081924438477e+00
1.889119148254394531e+00
1.519739866256713867e+00
1.174176096916198730e+00
8.732146024703979492e-01
6.273627281188964844e-01
4.391138553619384766e-01
3.055293560028076172e-01
2.202843427658081055e-01
1.748031377792358398e-01
1.588194072246551514e-01
1.610687375068664551e-01
1.705049276351928711e-01
1.778832674026489258e-01
1.771807670593261719e-01
1.662122011184692383e-01
1.461201906204223633e-01
1.200263500213623047e-01
9.138888120651245117e-02
6.260025501251220703e-02
3.443259000778198242e-02
6.431639194488525391e-03
-2.217531204223632812e-02
-5.160552263259887695e-02
-8.148717880249023438e-02
-1.117176413536071777e-01
-1.431638002395629883e-01
-1.775650382041931152e-01
-2.168190479278564453e-01
-2.618966996669769287e-01
-3.113738298416137695e-01
-3.594054579734802246e-01
-3.933592140674591064e-01
-3.928066492080688477e-01
-3.327351510524749756e-01
-1.917353272438049316e-01
3.850668668746948242e-02
3.475840687751770020e-01
7.066667079925537109e-01
1.073397278785705566e+00
1.399324178695678711e+00
1.637858629226684570e+00
1.750696182250976562e+00
1.711507081985473633e+00
1.506934881210327148e+00
1.136563301086425781e+00
6.145788431167602539e-01
-2.818715572357177734e-02
-7.504067420959472656e-01
-1.521479129791259766e+00
-2.346570014953613281e+00
-3.271008491516113281e+00
-4.356956958770751953e+00
-5.647119522094726562e+00
-7.131753921508789062e+00
-8.733807563781738281e+00
-1.031989574432373047e+01
-1.172861003875732422e+01
-1.280271530151367188e+01
-1.341776275634765625e+01
-1.350263023376464844e+01
-1.304816150665283203e+01
-1.210368251800537109e+01
-1.076469993591308594e+01
-9.155228614807128906e+00
-7.407805442810058594e+00
-5.645458221435546875e+00
-3.970345497131347656e+00
-2.459774971008300781e+00
-1.165078639984130859e+00
-1.106176376342773438e-01
7.047581672668457031e-01
1.302788734436035156e+00
1.720290660858154297e+00
2.005085706710815430e+00
2.211925029754638672e+00
2.396347999572753906e+00
2.607300043106079102e+00
2.881875991821289062e+00
3.243858337402343750e+00
3.703089237213134766e+00
4.253472328186035156e+00
4.873258113861083984e+00
5.530280113220214844e+00
6.188979625701904297e+00
6.816058635711669922e+00
7.384439468383789062e+00
7.875543117523193359e+00
8.279781341552734375e+00
8.595648765563964844e+00
8.827982902526855469e+00
8.985755920410156250e+00
9.079685211181640625e+00
9.120315551757812500e+00
9.117024421691894531e+00
9.077429771423339844e+00
9.006824493408203125e+00
8.908245086669921875e+00
8.783314704895019531e+00
8.632844924926757812e+00
8.456550598144531250e+00
8.252665519714355469e+00
8.018894195556640625e+00
7.754772186279296875e+00
7.463591098785400391e+00
7.152287483215332031e+00
6.829800605773925781e+00
6.505348205566406250e+00
6.187290668487548828e+00
5.882362842559814453e+00
5.594879150390625000e+00
5.326011180877685547e+00
5.073581218719482422e+00
4.832574367523193359e+00
4.596148014068603516e+00
4.356844425201416016e+00
4.107852458953857422e+00
3.844060897827148438e+00
3.562552928924560547e+00
3.262504577636718750e+00
2.944745540618896484e+00
2.611259460449218750e+00
2.264813899993896484e+00
1.908878326416015625e+00
1.547646999359130859e+00
1.185770273208618164e+00
8.277621269226074219e-01
4.774298667907714844e-01
1.375296115875244141e-01
-1.903305053710937500e-01
-5.055930614471435547e-01
-8.086118698120117188e-01
-1.100555419921875000e+00
-1.383187770843505859e+00
-1.658298492431640625e+00
-1.926863908767700195e+00
-2.188397645950317383e+00
-2.441045761108398438e+00
-2.682573795318603516e+00
-2.911672592163085938e+00
-3.128729581832885742e+00
-3.335636138916015625e+00
-3.534893751144409180e+00
-3.728600502014160156e+00
-3.917748451232910156e+00
-4.101961135864257812e+00
-4.279603481292724609e+00
-4.448121547698974609e+00
-4.604500770568847656e+00
-4.745814800262451172e+00
-4.869841575622558594e+00
-4.975604534149169922e+00
-5.063633441925048828e+00
-5.135838031768798828e+00
-5.195044040679931641e+00
-5.244354248046875000e+00
-5.286492347717285156e+00
-5.323271751403808594e+00
-5.355319023132324219e+00
-5.382133960723876953e+00
-5.402441978454589844e+00
-5.414664268493652344e+00
-5.417302131652832031e+00
-5.409152984619140625e+00
-5.389371871948242188e+00
-5.357436180114746094e+00
-5.313078880310058594e+00
-5.256228446960449219e+00
-5.186965465545654297e+00
-5.105464458465576172e+00
-5.011908054351806641e+00
-4.906410217285156250e+00
-4.789026260375976562e+00
-4.659892082214355469e+00
-4.519454956054687500e+00
-4.368704795837402344e+00
-4.209321975708007812e+00
-4.043656349182128906e+00
-3.874483585357666016e+00
-3.704589605331420898e+00
-3.536340236663818359e+00
-3.371400833129882812e+00
-3.210671663284301758e+00
-3.054399967193603516e+00
-2.902371406555175781e+00
-2.754098415374755859e+00
-2.608951807022094727e+00
-2.466209173202514648e+00
-2.325047016143798828e+00
-2.184539794921875000e+00
-2.043718099594116211e+00
-1.901668429374694824e+00
-1.757617950439453125e+00
-1.610960006713867188e+00
-1.461261153221130371e+00
-1.308331012725830078e+00
-1.152366161346435547e+00
-9.940873384475708008e-01
-8.347712755203247070e-01
-6.760971546173095703e-01
-5.197870731353759766e-01
-3.671626150608062744e-01
-2.188023924827575684e-01
-7.441593706607818604e-02
6.702743470668792725e-02
2.069430053234100342e-01
3.466805219650268555e-01
4.871481955051422119e-01
6.285882592201232910e-01
7.704897522926330566e-01
9.116278290748596191e-01
1.050237178802490234e+00
1.184287905693054199e+00
1.311801314353942871e+00
1.431124448776245117e+00
1.541054964065551758e+00
1.640780925750732422e+00
1.729748487472534180e+00
1.807604432106018066e+00
1.874247550964355469e+00
1.929914236068725586e+00
1.975215554237365723e+00
2.011091470718383789e+00
2.038708925247192383e+00
2.059350967407226562e+00
2.074327945709228516e+00
2.084928035736083984e+00
2.092410087585449219e+00
2.097987174987792969e+00
2.102767467498779297e+00
2.107667684555053711e+00
2.113351821899414062e+00
2.120220184326171875e+00
2.128429174423217773e+00
2.137884616851806641e+00
2.148185729980468750e+00
2.158575057983398438e+00
2.167986392974853516e+00
2.175223588943481445e+00
2.179199218750000000e+00
2.179121017456054688e+00
2.174588918685913086e+00
2.165629386901855469e+00
2.152689933776855469e+00
2.136550188064575195e+00
2.118116140365600586e+00
2.098171234130859375e+00
2.077209711074829102e+00
2.055448293685913086e+00
2.032999992370605469e+00
2.010092258453369141e+00
1.987166643142700195e+00
1.964761018753051758e+00
1.943199634552001953e+00
1.922224760055541992e+00
1.900771141052246094e+00
1.877027988433837891e+00
1.848784446716308594e+00
1.813921809196472168e+00
1.770884633064270020e+00
1.719001293182373047e+00
1.658588409423828125e+00
1.590827345848083496e+00
1.517466902732849121e+00
1.440492630004882812e+00
1.361898541450500488e+00
1.283586382865905762e+00
1.207302689552307129e+00
1.134566068649291992e+00
1.066618919372558594e+00
1.004428148269653320e+00
9.486759901046752930e-01
8.996883034706115723e-01
8.573313951492309570e-01
8.209134936332702637e-01
7.890443801879882812e-01
7.594384551048278809e-01
7.288151979446411133e-01
6.931340098381042480e-01
6.482818126678466797e-01
5.910569429397583008e-01
5.199854373931884766e-01
4.355623424053192139e-01
3.399943411350250244e-01
2.366276979446411133e-01
1.288384795188903809e-01
1.836967468261718750e-02
-9.598755836486816406e-02
-2.184534966945648193e-01
-3.548911511898040771e-01
-5.099115371704101562e-01
-6.830206513404846191e-01
-8.659566640853881836e-01
-1.043124079704284668e+00
-1.195013046264648438e+00
-1.303117275238037109e+00
-1.354613780975341797e+00
-1.345258355140686035e+00
-1.279648900032043457e+00
-1.169164180755615234e+00
-1.028716683387756348e+00
-8.736491203308105469e-01
-7.176510095596313477e-01
-5.716929435729980469e-01
-4.435057044029235840e-01
-3.371487855911254883e-01
-2.526469826698303223e-01
-1.866069734096527100e-01
-1.344906389713287354e-01
-9.334218502044677734e-02
-6.296811997890472412e-02
-4.511928558349609375e-02
-4.186766222119331360e-02
-5.427502840757369995e-02
-8.165235817432403564e-02
-1.214197054505348206e-01
-1.694483160972595215e-01
-2.206498980522155762e-01
-2.696926593780517578e-01
-3.117802441120147705e-01
-3.432928919792175293e-01
-3.621011972427368164e-01
-3.675507903099060059e-01
-3.602325022220611572e-01
-3.417274951934814453e-01
-3.145849108695983887e-01
-2.825752794742584229e-01
-2.508006989955902100e-01
-2.251815497875213623e-01
-2.113998234272003174e-01
-2.137915492057800293e-01
-2.345299869775772095e-01
-2.731877267360687256e-01
-3.267295658588409424e-01
-3.899645209312438965e-01
-4.563346505165100098e-01
-5.188509821891784668e-01
-5.710321068763732910e-01
-6.076841354370117188e-01
-6.253715157508850098e-01
-6.225570440292358398e-01
-5.994794368743896484e-01
-5.578176975250244141e-01
-5.002348423004150391e-01
-4.300973117351531982e-01
-3.516167998313903809e-01
-2.701156139373779297e-01
-1.917631477117538452e-01
-1.225589066743850708e-01
-6.707054376602172852e-02
-2.758270502090454102e-02
-3.805279731750488281e-03
6.915181875228881836e-03
8.666306734085083008e-03
5.511164665222167969e-03
4.994869232177734375e-04
-4.173666238784790039e-03
-6.304949522018432617e-03
-3.081113100051879883e-03
8.736371994018554688e-03
3.209388256072998047e-02
6.886771321296691895e-02
1.192789971828460693e-01
1.816793382167816162e-01
2.526409327983856201e-01
3.270264565944671631e-01
3.981139063835144043e-01
4.583117961883544922e-01
5.005986094474792480e-01
5.200803279876708984e-01
5.148954987525939941e-01
4.861561059951782227e-01
4.372597932815551758e-01
3.731371164321899414e-01
2.996887564659118652e-01
2.233287096023559570e-01
1.504744291305541992e-01
8.695775270462036133e-02
3.751468658447265625e-02
5.517065525054931641e-03
-7.122993469238281250e-03
-7.021427154541015625e-05
2.539467811584472656e-02
6.667608022689819336e-02
1.203364729881286621e-01
1.823484301567077637e-01
2.480608820915222168e-01
3.120666742324829102e-01
3.683092594146728516e-01
4.107653498649597168e-01
4.344703555107116699e-01
4.361715316772460938e-01
4.142886400222778320e-01
3.684811592102050781e-01
2.992249727249145508e-01
2.076302766799926758e-01
9.560281038284301758e-02
-3.375291824340820312e-02
-1.758220791816711426e-01
-3.246125578880310059e-01
-4.734103083610534668e-01
-6.157005429267883301e-01
-7.459384202957153320e-01
-8.598774671554565430e-01
-9.545358419418334961e-01
-1.028126478195190430e+00
-1.080061316490173340e+00
-1.110857486724853516e+00
-1.121925473213195801e+00
-1.115427017211914062e+00
-1.094133853912353516e+00
-1.060987353324890137e+00
-1.018442273139953613e+00
-9.681149125099182129e-01
-9.110543131828308105e-01
-8.482389450073242188e-01
-7.806607484817504883e-01
-7.090904116630554199e-01
-6.341182589530944824e-01
-5.565519332885742188e-01
-4.777002036571502686e-01
-3.991907536983489990e-01
-3.224365115165710449e-01
-2.482042312622070312e-01
-1.766647994518280029e-01
-1.079368889331817627e-01
-4.295212030410766602e-02
1.570987701416015625e-02
6.390181183815002441e-02
9.722241759300231934e-02
1.120899915695190430e-01
1.055613756179809570e-01
7.527279853820800781e-02
2.063983678817749023e-02
-5.559486150741577148e-02
-1.465481817722320557e-01
-2.417165338993072510e-01
-3.293086290359497070e-01
-3.993648886680603027e-01
-4.456582963466644287e-01
-4.659403860569000244e-01
-4.613879024982452393e-01
-4.358473420143127441e-01
-3.951790928840637207e-01
-3.467574417591094971e-01
-2.987300753593444824e-01
-2.587559819221496582e-01
-2.327292859554290771e-01
-2.243274599313735962e-01
-2.356586456298828125e-01
-2.684670090675354004e-01
-3.250020146369934082e-01
-4.081158041954040527e-01
-5.206683278083801270e-01
-6.643729209899902344e-01
-8.384708166122436523e-01
-1.038441061973571777e+00
-1.254500985145568848e+00
-1.470850586891174316e+00
-1.667263746261596680e+00
-1.822766304016113281e+00
-1.919772624969482422e+00
-1.946913480758666992e+00
-1.899282217025756836e+00
-1.776597261428833008e+00
-1.581185817718505859e+00
-1.317576408386230469e+00
-9.943623542785644531e-01
-6.268301010131835938e-01
-2.367783784866333008e-01
1.527246236801147461e-01
5.243566036224365234e-01
8.668227195739746094e-01
1.167753219604492188e+00
1.414903640747070312e+00
1.613730669021606445e+00
1.804998874664306641e+00
2.060493469238281250e+00
2.449257373809814453e+00
2.993703365325927734e+00
3.651995420455932617e+00
4.340390682220458984e+00
4.973973274230957031e+00
5.497972011566162109e+00
5.896927833557128906e+00
6.184854030609130859e+00
6.388904094696044922e+00
6.536165237426757812e+00
6.644484043121337891e+00
6.716647148132324219e+00
6.739198207855224609e+00
6.685221195220947266e+00
6.519005775451660156e+00
6.201774120330810547e+00
5.699523448944091797e+00
4.993772983551025391e+00
4.090771198272705078e+00
3.022860527038574219e+00
1.842559814453125000e+00
6.141164302825927734e-01
-5.958162546157836914e-01
-1.729875087738037109e+00
-2.755284309387207031e+00
-3.676202297210693359e+00
-4.528661727905273438e+00
-5.355667114257812500e+00
-6.180382251739501953e+00
-6.994330883026123047e+00
-7.761723041534423828e+00
-8.432233810424804688e+00
-8.954780578613281250e+00
-9.288070678710937500e+00
-9.406570434570312500e+00
-9.302107810974121094e+00
-8.982486724853515625e+00
-8.468521118164062500e+00
-7.789177417755126953e+00
-6.974559307098388672e+00
-6.050570964813232422e+00
-5.041006088256835938e+00
-3.975981712341308594e+00
-2.898211717605590820e+00
-1.860642433166503906e+00
-9.164791107177734375e-01
-1.072485446929931641e-01
5.456324219703674316e-01
1.042479634284973145e+00
1.399904012680053711e+00
1.642554998397827148e+00
1.796476960182189941e+00
1.882955074310302734e+00
1.912138938903808594e+00
1.881435871124267578e+00
1.781409740447998047e+00
1.605114936828613281e+00
1.355058670043945312e+00
1.045137882232666016e+00
7.000824213027954102e-01
3.555484414100646973e-01
5.544984340667724609e-02
-1.578140258789062500e-01
-2.554155588150024414e-01
-2.290068864822387695e-01
-9.293746948242187500e-02
1.162792444229125977e-01
3.491044044494628906e-01
5.640677213668823242e-01
7.486215829849243164e-01
9.237563014030456543e-01
1.128855466842651367e+00
1.396453619003295898e+00
1.735907077789306641e+00
2.137423992156982422e+00
2.582220554351806641e+00
3.040210485458374023e+00
3.462173938751220703e+00
3.783603668212890625e+00
3.940497636795043945e+00
3.886429786682128906e+00
3.605335712432861328e+00
3.117744684219360352e+00
2.477409124374389648e+00
1.759663581848144531e+00
1.047115325927734375e+00
4.166952371597290039e-01
-7.024061679840087891e-02
-3.740152120590209961e-01
-4.789077043533325195e-01
-3.921447992324829102e-01
-1.403524875640869141e-01
2.357960939407348633e-01
6.875948905944824219e-01
1.163912177085876465e+00
1.616374015808105469e+00
2.004385709762573242e+00
2.299071073532104492e+00
2.484661817550659180e+00
2.557763576507568359e+00
2.526260137557983398e+00
2.407876968383789062e+00
2.227272033691406250e+00
2.011523723602294922e+00
1.784855961799621582e+00
1.563987970352172852e+00
1.355914354324340820e+00
1.159825325012207031e+00
9.721906781196594238e-01
7.907044887542724609e-01
6.140176653861999512e-01
4.393873810768127441e-01
2.654461264610290527e-01
1.080324649810791016e-01
2.594381570816040039e-02
1.317843198776245117e-01
5.628293752670288086e-01
1.422914743423461914e+00
2.731061935424804688e+00
4.399605751037597656e+00
6.245025634765625000e+00
8.023970603942871094e+00
9.480446815490722656e+00
1.039076423645019531e+01
1.059837913513183594e+01
1.003561592102050781e+01
8.731870651245117188e+00
6.806998252868652344e+00
4.448379516601562500e+00
1.876232147216796875e+00
-6.924383640289306641e-01
-3.072277784347534180e+00
-5.127346515655517578e+00
-6.779461383819580078e+00
-8.007713317871093750e+00
-8.838902473449707031e+00
-9.332193374633789062e+00
-9.562398910522460938e+00
-9.603176116943359375e+00
-9.511555671691894531e+00
-9.318447113037109375e+00
-9.030178070068359375e+00
-8.640180587768554688e+00
-8.140325546264648438e+00
-7.521756649017333984e+00
-6.770129203796386719e+00
-5.869213581085205078e+00
-4.815474510192871094e+00
-3.631426334381103516e+00
-2.367579936981201172e+00
-1.094877243041992188e+00
1.059708595275878906e-01
1.155441522598266602e+00
1.986568450927734375e+00
2.555244445800781250e+00
2.845352649688720703e+00
2.866825103759765625e+00
2.649817466735839844e+00
2.239083290100097656e+00
1.689171314239501953e+00
1.058895826339721680e+00
4.048683643341064453e-01
-2.241826057434082031e-01
-7.904803752899169922e-01
-1.267099142074584961e+00
-1.635190963745117188e+00
-1.880124092102050781e+00
-1.989594340324401855e+00
-1.956114888191223145e+00
-1.782773733139038086e+00
-1.488536715507507324e+00
-1.109941005706787109e+00
-6.980296373367309570e-01
-3.110523223876953125e-01
-4.901885986328125000e-03
1.759936809539794922e-01
2.051174640655517578e-01
7.641959190368652344e-02
-1.968727111816406250e-01
-5.857505798339843750e-01
-1.050091028213500977e+00
-1.544113874435424805e+00
-2.022294044494628906e+00
-2.445341348648071289e+00
-2.785403251647949219e+00
-3.028988838195800781e+00
-3.176524162292480469e+00
-3.238728761672973633e+00
-3.231197357177734375e+00
-3.169621467590332031e+00
-3.067792892456054688e+00
-2.937865734100341797e+00
-2.790700197219848633e+00
-2.635445594787597656e+00
-2.478954553604125977e+00
-2.325708866119384766e+00
-2.178392410278320312e+00
-2.038690090179443359e+00
-1.907771110534667969e+00
-1.786244988441467285e+00
-1.673820972442626953e+00
-1.569116830825805664e+00
-1.469883441925048828e+00
-1.373497962951660156e+00
-1.277385711669921875e+00
-1.179222822189331055e+00
-1.077032327651977539e+00
-9.693129062652587891e-01
-8.551727533340454102e-01
-7.343252897262573242e-01
-6.069344282150268555e-01
-4.734780788421630859e-01
-3.347330093383789062e-01
-1.917929649353027344e-01
-4.599571228027343750e-02
1.012444496154785156e-01
2.486188411712646484e-01
3.950655460357666016e-01
5.398330688476562500e-01
6.824517250061035156e-01
8.226399421691894531e-01
9.601962566375732422e-01
1.094928741455078125e+00
1.226685643196105957e+00
1.355515360832214355e+00
1.481901168823242188e+00
1.606939435005187988e+00
1.732279539108276367e+00
1.859695315361022949e+00
1.990368127822875977e+00
2.124238729476928711e+00
2.259735107421875000e+00
2.393897771835327148e+00
2.522793292999267578e+00
2.642092227935791016e+00
2.747654438018798828e+00
2.836002111434936523e+00
2.904654264450073242e+00
2.952346563339233398e+00
2.979182720184326172e+00
2.986675500869750977e+00
2.977596759796142578e+00
2.955616950988769531e+00
2.924739360809326172e+00
2.888602256774902344e+00
2.849883079528808594e+00
2.810045719146728516e+00
2.769485235214233398e+00
2.727913379669189453e+00
2.684729337692260742e+00
2.639251708984375000e+00
2.590853214263916016e+00
2.539008855819702148e+00
2.483291387557983398e+00
2.423413276672363281e+00
2.359315156936645508e+00
2.291197776794433594e+00
2.219441890716552734e+00
2.144421577453613281e+00
2.066316127777099609e+00
1.985125780105590820e+00
1.900983810424804688e+00
1.814574122428894043e+00
1.727363586425781250e+00
1.641452789306640625e+00
1.559060811996459961e+00
1.481893777847290039e+00
1.410722255706787109e+00
1.345276713371276855e+00
1.284377336502075195e+00
1.226254224777221680e+00
1.168938755989074707e+00
1.110453963279724121e+00
1.048783302307128906e+00
9.819036722183227539e-01
9.080190658569335938e-01
8.258587718009948730e-01
7.348691225051879883e-01
6.352103948593139648e-01
5.275957584381103516e-01
4.131827354431152344e-01
2.936912775039672852e-01
1.715999841690063477e-01
5.009204149246215820e-02
-6.737565994262695312e-02
-1.776730418205261230e-01
-2.783358097076416016e-01
-3.673145771026611328e-01
-4.422841072082519531e-01
-5.000969767570495605e-01
-5.369921326637268066e-01
-5.497146844863891602e-01
-5.369988679885864258e-01
-5.005552172660827637e-01
-4.450906813144683838e-01
-3.774869441986083984e-01
-3.056248724460601807e-01
-2.373061031103134155e-01
-1.793730258941650391e-01
-1.369473040103912354e-01
-1.128305345773696899e-01
-1.071830391883850098e-01
-1.175861954689025879e-01
-1.395768523216247559e-01
-1.675255596637725830e-01
-1.954963803291320801e-01
-2.179397642612457275e-01
-2.305466532707214355e-01
-2.315390706062316895e-01
-2.229096889495849609e-01
-2.105865478515625000e-01
-2.030814886093139648e-01
-2.093657851219177246e-01
-2.370728254318237305e-01
-2.913748025894165039e-01
-3.742918968200683594e-01
-4.844712615013122559e-01
-6.177738904953002930e-01
-7.685227394104003906e-01
-9.305804371833801270e-01
-1.097654819488525391e+00
-1.263120532035827637e+00
-1.419967889785766602e+00
-1.561065316200256348e+00
-1.679574966430664062e+00
-1.769486308097839355e+00
-1.826434373855590820e+00
-1.848722457885742188e+00
-1.838021755218505859e+00
-1.799237012863159180e+00
-1.739598870277404785e+00
-1.667599201202392578e+00
-1.592281103134155273e+00
-1.522746205329895020e+00
-1.467629432678222656e+00
-1.434822559356689453e+00
-1.431753873825073242e+00
-1.465887546539306641e+00
-1.544535756111145020e+00
-1.672926902770996094e+00
-1.850270509719848633e+00
-2.065654039382934570e+00
-2.297801017761230469e+00
-2.522131443023681641e+00
-2.724285840988159180e+00
-2.912554264068603516e+00
-3.115411758422851562e+00
-3.357620716094970703e+00
-3.630649328231811523e+00
-3.881458997726440430e+00
-4.025960922241210938e+00
-3.975304841995239258e+00
-3.661850690841674805e+00
-3.057747364044189453e+00
-2.182438373565673828e+00
-1.098237514495849609e+00
1.026484966278076172e-01
1.314551830291748047e+00
2.434755802154541016e+00
3.377633810043334961e+00
4.084424018859863281e+00
4.527418136596679688e+00
4.708854675292968750e+00
4.655820846557617188e+00
4.412840843200683594e+00
4.033710956573486328e+00
3.573754072189331055e+00
3.083367347717285156e+00
2.603499650955200195e+00
2.163491725921630859e+00
1.781262636184692383e+00
1.465110659599304199e+00
1.216008067131042480e+00
1.029650092124938965e+00
8.980536460876464844e-01
8.107006549835205078e-01
7.554024457931518555e-01
7.193174362182617188e-01
6.903092265129089355e-01
6.583344936370849609e-01
6.164984703063964844e-01
5.615912675857543945e-01
4.939381480216979980e-01
4.165481328964233398e-01
3.338910937309265137e-01
2.507258653640747070e-01
1.710750460624694824e-01
9.725934267044067383e-02
2.907502651214599609e-02
-3.677523136138916016e-02
-1.070352792739868164e-01
-1.918629705905914307e-01
-3.037771880626678467e-01
-4.553115963935852051e-01
-6.565898060798645020e-01
-9.141432642936706543e-01
-1.229719638824462891e+00
-1.596667528152465820e+00
-1.994698286056518555e+00
-2.387698411941528320e+00
-2.728771924972534180e+00
-2.971905708312988281e+00
-3.085401773452758789e+00
-3.061845779418945312e+00
-2.919638872146606445e+00
-2.691967248916625977e+00
-2.408659458160400391e+00
-2.085580825805664062e+00
-1.727629423141479492e+00
-1.338165283203125000e+00
-9.270383119583129883e-01
-5.142467021942138672e-01
-1.292796134948730469e-01
1.923236846923828125e-01
4.131902456283569336e-01
4.971447587013244629e-01
4.116385877132415771e-01
1.361843943595886230e-01
-3.194904327392578125e-01
-9.010371565818786621e-01
-1.515898346900939941e+00
-2.056909084320068359e+00
-2.426907539367675781e+00
-2.556267023086547852e+00
-2.413593053817749023e+00
-2.009655475616455078e+00
-1.392898559570312500e+00
-6.363353729248046875e-01
1.800265312194824219e-01
9.843919873237609863e-01
1.722058892250061035e+00
2.358706474304199219e+00
2.879664421081542969e+00
3.285463809967041016e+00
3.584742784500122070e+00
3.787635803222656250e+00
3.902648448944091797e+00
3.937134027481079102e+00
3.899082660675048828e+00
3.798277378082275391e+00
3.646249771118164062e+00
3.455241918563842773e+00
3.237117528915405273e+00
3.003254652023315430e+00
2.765217781066894531e+00
2.534928798675537109e+00
2.323464870452880859e+00
2.139314174652099609e+00
1.988017201423645020e+00
1.873442053794860840e+00
1.798558115959167480e+00
1.764242768287658691e+00
1.767135381698608398e+00
1.798326730728149414e+00
1.843729496002197266e+00
1.885936498641967773e+00
1.906836986541748047e+00
1.890185594558715820e+00
1.823616743087768555e+00
1.699915409088134766e+00
1.517393589019775391e+00
1.278975486755371094e+00
9.900823831558227539e-01
6.569972038269042969e-01
2.876369953155517578e-01
-1.059212684631347656e-01
-5.060868859291076660e-01
-8.915262222290039062e-01
-1.241643667221069336e+00
-1.542359709739685059e+00
-1.791994333267211914e+00
-2.004974842071533203e+00
-2.208918809890747070e+00
-2.433567285537719727e+00
-2.697417736053466797e+00
-2.999217510223388672e+00
-3.316122770309448242e+00
-3.606944084167480469e+00
-3.819537162780761719e+00
-3.901929855346679688e+00
-3.814953804016113281e+00
-3.542425155639648438e+00
-3.095725297927856445e+00
-2.511966705322265625e+00
-1.846915960311889648e+00
-1.164879798889160156e+00
-5.279836654663085938e-01
1.300209760665893555e-02
4.244998693466186523e-01
6.917534470558166504e-01
8.168960809707641602e-01
8.150262832641601562e-01
7.099434137344360352e-01
5.306586027145385742e-01
3.085094690322875977e-01
7.397884130477905273e-02
-1.468592882156372070e-01
-3.352877497673034668e-01
-4.813264012336730957e-01
-5.832978487014770508e-01
-6.459045410156250000e-01
-6.774805188179016113e-01
-6.874936819076538086e-01
-6.851221919059753418e-01
-6.785987615585327148e-01
-6.751092672348022461e-01
-6.818615794181823730e-01
-7.076188325881958008e-01
-7.624496221542358398e-01
-8.549287319183349609e-01
-9.884216785430908203e-01
-1.158509016036987305e+00
-1.352663516998291016e+00
-1.552243828773498535e+00
-1.735955476760864258e+00
-1.883368968963623047e+00
-1.977406978607177734e+00
-2.005736827850341797e+00
-1.961658358573913574e+00
-1.844828486442565918e+00
-1.661514878273010254e+00
-1.423505187034606934e+00
-1.145374178886413574e+00
-8.416012525558471680e-01
-5.253739356994628906e-01
-2.090189456939697266e-01
9.510889649391174316e-02
3.741273581981658936e-01
6.151862144470214844e-01
8.073912858963012695e-01
9.442303180694580078e-01
1.025059819221496582e+00
1.055014371871948242e+00
1.043425798416137695e+00
1.001072287559509277e+00
9.374878406524658203e-01
8.600081801414489746e-01
7.747125029563903809e-01
6.877936720848083496e-01
6.060191392898559570e-01
5.359107255935668945e-01
4.819813668727874756e-01
4.449056088924407959e-01
4.208305776119232178e-01
4.028053879737854004e-01
3.843534886837005615e-01
3.636247813701629639e-01
3.455250859260559082e-01
3.405094146728515625e-01
3.611980676651000977e-01
4.185370206832885742e-01
5.183684825897216797e-01
6.591528654098510742e-01
8.315392136573791504e-01
1.019770145416259766e+00
1.204388976097106934e+00
1.365720748901367188e+00
1.487543582916259766e+00
1.560104370117187500e+00
1.581598758697509766e+00
1.557684898376464844e+00
1.499317646026611328e+00
1.419751882553100586e+00
1.331710338592529297e+00
1.245401501655578613e+00
1.167557477951049805e+00
1.101305007934570312e+00
1.046571612358093262e+00
1.000798702239990234e+00
9.598309993743896484e-01
9.188671112060546875e-01
8.733545541763305664e-01
8.197238445281982422e-01
7.558834552764892578e-01
6.814571619033813477e-01
5.977928638458251953e-01
5.078430175781250000e-01
4.159739017486572266e-01
3.275247216224670410e-01
2.479428052902221680e-01
1.816937774419784546e-01
1.313405781984329224e-01
9.704487025737762451e-02
7.657878845930099487e-02
6.585590541362762451e-02
5.986933410167694092e-02
5.375484377145767212e-02
4.365747421979904175e-02
2.720612287521362305e-02
3.564842045307159424e-03
-2.690172195434570312e-02
-6.366910040378570557e-02
-1.094243228435516357e-01
-1.777479201555252075e-01
-3.015972971916198730e-01
-5.318853855133056641e-01
-9.200478196144104004e-01
-1.491821408271789551e+00
-2.225490808486938477e+00
-3.045329332351684570e+00
-3.834558486938476562e+00
-4.462788105010986328e+00
-4.817530155181884766e+00
-4.832151412963867188e+00
-4.506061077117919922e+00
-3.910001754760742188e+00
-3.168065547943115234e+00
-2.420042753219604492e+00
-1.782598495483398438e+00
-1.325606584548950195e+00
-1.065155744552612305e+00
-9.672541618347167969e-01
-9.599084854125976562e-01
-9.535475969314575195e-01
-8.651899099349975586e-01
-6.377302408218383789e-01
-2.486817836761474609e-01
2.909114360809326172e-01
9.434760808944702148e-01
1.654501318931579590e+00
2.362119913101196289e+00
3.004238128662109375e+00
3.522093057632446289e+00
3.861187458038330078e+00
3.973294734954833984e+00
3.825036048889160156e+00
3.412704944610595703e+00
2.773818969726562500e+00
1.987264633178710938e+00
1.162167787551879883e+00
4.193382859230041504e-01
-1.308649778366088867e-01
-4.097713232040405273e-01
-3.846632242202758789e-01
-7.171761989593505859e-02
4.711572527885437012e-01
1.157682061195373535e+00
1.889538168907165527e+00
2.572112798690795898e+00
3.126261472702026367e+00
3.494899272918701172e+00
3.644149780273437500e+00
3.557756423950195312e+00
3.227586507797241211e+00
2.652523517608642578e+00
1.851988315582275391e+00
8.786829710006713867e-01
-1.840944886207580566e-01
-1.234178900718688965e+00
-2.167803287506103516e+00
-2.909592628479003906e+00
-3.439623832702636719e+00
-3.791562557220458984e+00
-4.028729915618896484e+00
-4.219470977783203125e+00
-4.417894363403320312e+00
-4.647929668426513672e+00
-4.891166210174560547e+00
-5.085998535156250000e+00
-5.144116878509521484e+00
-4.978409767150878906e+00
-4.530696392059326172e+00
-3.790042877197265625e+00
-2.796698093414306641e+00
-1.632207155227661133e+00
-4.006865024566650391e-01
7.919763326644897461e-01
1.855289936065673828e+00
2.724872112274169922e+00
3.365957736968994141e+00
3.768077373504638672e+00
3.926175117492675781e+00
3.812052488327026367e+00
3.361778497695922852e+00
2.499018192291259766e+00
1.179810881614685059e+00
-5.685732364654541016e-01
-2.632199525833129883e+00
-4.823740482330322266e+00
-6.916593551635742188e+00
-8.685964584350585938e+00
-9.945743560791015625e+00
-1.057442474365234375e+01
-1.052728652954101562e+01
-9.835179328918457031e+00
-8.592454910278320312e+00
-6.937770843505859375e+00
-5.031822204589843750e+00
-3.035682678222656250e+00
-1.092663288116455078e+00
6.845345497131347656e-01
2.220625162124633789e+00
3.478750228881835938e+00
4.456669807434082031e+00
5.179867744445800781e+00
5.693718433380126953e+00
6.055488109588623047e+00
6.325475692749023438e+00
6.557762622833251953e+00
6.792830467224121094e+00
7.053822517395019531e+00
7.346259117126464844e+00
7.660267353057861328e+00
7.975158691406250000e+00
8.265576362609863281e+00
8.507202148437500000e+00
8.681090354919433594e+00
8.777074813842773438e+00
8.796348571777343750e+00
8.752635955810546875e+00
8.670427322387695312e+00
8.578353881835937500e+00
8.499653816223144531e+00
8.446767807006835938e+00
8.423948287963867188e+00
8.432460784912109375e+00
8.471187591552734375e+00
8.534242630004882812e+00
8.611150741577148438e+00
8.686989784240722656e+00
8.736442565917968750e+00
8.714704513549804688e+00
8.551751136779785156e+00
8.155340194702148438e+00
7.432070732116699219e+00
6.323998451232910156e+00
4.837668418884277344e+00
3.048877716064453125e+00
1.086889743804931641e+00
-8.915765285491943359e-01
-2.729526042938232422e+00
-4.291612625122070312e+00
-5.480563163757324219e+00
-6.249646186828613281e+00
-6.606725215911865234e+00
-6.605472564697265625e+00
-6.326448440551757812e+00
-5.853856086730957031e+00
-5.254003047943115234e+00
-4.562630176544189453e+00
-3.787007331848144531e+00
-2.921909332275390625e+00
-1.971531867980957031e+00
-9.669942855834960938e-01
3.091382980346679688e-02
9.463734626770019531e-01
1.708296298980712891e+00
2.260083675384521484e+00
2.557134628295898438e+00
2.559750080108642578e+00
2.229515552520751953e+00
1.534752368927001953e+00
4.654150009155273438e-01
-9.500851631164550781e-01
-2.637331008911132812e+00
-4.483108520507812500e+00
-6.353113174438476562e+00
-8.111721992492675781e+00
-9.638644218444824219e+00
-1.084127235412597656e+01
-1.165969085693359375e+01
-1.205882644653320312e+01
-1.201688098907470703e+01
-1.152120780944824219e+01
-1.055297946929931641e+01
-9.060561180114746094e+00
-6.967582225799560547e+00
-4.230930328369140625e+00
-9.074172973632812500e-01
2.816703319549560547e+00
6.646650791168212891e+00
1.023284721374511719e+01
1.323369407653808594e+01
1.537015151977539062e+01
1.646105003356933594e+01
1.643453788757324219e+01
1.531389999389648438e+01
1.318393325805664062e+01
1.016392517089843750e+01
6.405749320983886719e+00
2.104524612426757812e+00
-2.491978645324707031e+00
-7.079720497131347656e+00
-1.130878353118896484e+01
-1.482072830200195312e+01
-1.731637763977050781e+01
-1.862757301330566406e+01
-1.875838851928710938e+01
-1.788051605224609375e+01
-1.628631782531738281e+01
-1.432275485992431641e+01
-1.232933425903320312e+01
-1.058682250976562500e+01
-9.280700683593750000e+00
-8.480590820312500000e+00
-8.140609741210937500e+00
-8.137020111083984375e+00
-8.328544616699218750e+00
-8.594564437866210938e+00
-8.842133522033691406e+00
-9.003782272338867188e+00
-9.035779953002929688e+00
-8.915961265563964844e+00
-8.640327453613281250e+00
-8.218809127807617188e+00
-7.671561717987060547e+00
-7.023048877716064453e+00
-6.286422252655029297e+00
-5.445272922515869141e+00
-4.459473609924316406e+00
-3.299246072769165039e+00
-1.975259065628051758e+00
-5.429379940032958984e-01
9.115887880325317383e-01
2.290613651275634766e+00
3.502788066864013672e+00
4.477550983428955078e+00
5.173860549926757812e+00
5.582775115966796875e+00
5.726148605346679688e+00
5.651544570922851562e+00
5.421844482421875000e+00
5.102417945861816406e+00
4.750758171081542969e+00
4.410318851470947266e+00
4.108260631561279297e+00
3.856458663940429688e+00
3.654654979705810547e+00
3.494354009628295898e+00
3.362587451934814453e+00
3.245244979858398438e+00
3.129729747772216797e+00
3.006727933883666992e+00
2.871095657348632812e+00
2.722011089324951172e+00
2.562496423721313477e+00
2.398597478866577148e+00
2.238850593566894531e+00
2.094009399414062500e+00
1.975703001022338867e+00
1.894741177558898926e+00
1.861706256866455078e+00
1.887030482292175293e+00
1.976111054420471191e+00
2.123430728912353516e+00
2.311567306518554688e+00
2.514753341674804688e+00
2.704169034957885742e+00
2.852416038513183594e+00
2.935175180435180664e+00
2.928134918212890625e+00
2.799324750900268555e+00
2.508406162261962891e+00
2.024062395095825195e+00
1.346926212310791016e+00
5.186100006103515625e-01
-3.853127956390380859e-01
-1.271006584167480469e+00
-2.044301509857177734e+00
-2.626317977905273438e+00
-2.964207649230957031e+00
-3.036141395568847656e+00
-2.850901603698730469e+00
-2.443180561065673828e+00
-1.865994930267333984e+00
-1.181787967681884766e+00
-4.538040161132812500e-01
2.610888481140136719e-01
9.175610542297363281e-01
1.484812498092651367e+00
1.947368621826171875e+00
2.303846836090087891e+00
2.564274549484252930e+00
2.746759653091430664e+00
2.873840332031250000e+00
2.968726873397827148e+00
3.052278995513916016e+00
3.140964269638061523e+00
3.245245218276977539e+00
3.368699550628662109e+00
3.508537530899047852e+00
3.657265663146972656e+00
3.804820060729980469e+00
3.940651416778564453e+00
4.055440902709960938e+00
4.142299652099609375e+00
4.197374343872070312e+00
4.219870567321777344e+00
4.211612701416015625e+00
4.176342964172363281e+00
4.118947029113769531e+00
4.044702053070068359e+00
3.958616733551025391e+00
3.864931106567382812e+00
3.766812562942504883e+00
3.666258573532104492e+00
3.564172029495239258e+00
3.460576057434082031e+00
3.354909181594848633e+00
3.246326446533203125e+00
3.133954048156738281e+00
3.017083644866943359e+00
2.895293951034545898e+00
2.768497228622436523e+00
2.636921644210815430e+00
2.501048088073730469e+00
2.361529827117919922e+00
2.219127178192138672e+00
2.074641227722167969e+00
1.928823113441467285e+00
1.782285451889038086e+00
1.635462403297424316e+00
1.488615751266479492e+00
1.341844677925109863e+00
1.195076704025268555e+00
1.048077225685119629e+00
9.005431532859802246e-01
7.522728443145751953e-01
6.033270955085754395e-01
4.540990591049194336e-01
3.052540719509124756e-01
1.576196849346160889e-01
1.227882504463195801e-02
-1.291985809803009033e-01
-2.648844122886657715e-01
-3.930657505989074707e-01
-5.127820372581481934e-01
-6.240254640579223633e-01
-7.276541590690612793e-01
-8.251274824142456055e-01
-9.181258082389831543e-01
-1.008138418197631836e+00
-1.096187591552734375e+00
-1.182790994644165039e+00
-1.268067598342895508e+00
-1.351831555366516113e+00
-1.433447003364562988e+00
-1.511192083358764648e+00
-1.581466913223266602e+00
-1.638965010643005371e+00
-1.678373336791992188e+00
-1.696615219116210938e+00
-1.694258809089660645e+00
-1.675604104995727539e+00
-1.647730469703674316e+00
-1.619018316268920898e+00
-1.597623586654663086e+00
-1.590220808982849121e+00
-1.601177215576171875e+00
-1.632200598716735840e+00
-1.682424545288085938e+00
-1.748815655708312988e+00
-1.826757311820983887e+00
-1.910708904266357422e+00
-1.994886040687561035e+00
-2.073925256729125977e+00
-2.143485546112060547e+00
-2.200700998306274414e+00
-2.244366168975830078e+00
-2.274784088134765625e+00
-2.293348789215087891e+00
-2.302044391632080078e+00
-2.303037405014038086e+00
-2.298373460769653320e+00
-2.289656400680541992e+00
-2.277719497680664062e+00
-2.262438297271728516e+00
-2.242802858352661133e+00
-2.217315435409545898e+00
-2.184540271759033203e+00
-2.143509387969970703e+00
-2.093942642211914062e+00
-2.036394596099853516e+00
-1.972316026687622070e+00
-1.903951048851013184e+00
-1.834054350852966309e+00
-1.765516877174377441e+00
-1.700966358184814453e+00
-1.642339706420898438e+00
-1.590516567230224609e+00
-1.545213937759399414e+00
-1.505239248275756836e+00
-1.468978285789489746e+00
-1.434848427772521973e+00
-1.401552319526672363e+00
-1.368131518363952637e+00
-1.333900928497314453e+00
-1.298488140106201172e+00
-1.262830734252929688e+00
-1.231383323669433594e+00
-1.212684154510498047e+00
-1.216052412986755371e+00
-1.247481346130371094e+00
-1.307999849319458008e+00
-1.393145203590393066e+00
-1.492204070091247559e+00
-1.589209556579589844e+00
-1.666211128234863281e+00
-1.706318140029907227e+00
-1.695682525634765625e+00
-1.625375270843505859e+00
-1.492989063262939453e+00
-1.303151845932006836e+00
-1.067168712615966797e+00
-8.024265766143798828e-01
-5.304052829742431641e-01
-2.725566625595092773e-01
-4.670786857604980469e-02
1.304145455360412598e-01
2.354530394077301025e-01
2.431644797325134277e-01
1.471995711326599121e-01
-3.032279014587402344e-02
-2.499783039093017578e-01
-4.687800407409667969e-01
-6.479887962341308594e-01
-7.591121196746826172e-01
-7.876733541488647461e-01
-7.302472591400146484e-01
-5.886666774749755859e-01
-3.689745664596557617e-01
-8.342981338500976562e-02
2.492655515670776367e-01
6.056108474731445312e-01
9.594745635986328125e-01
1.285233497619628906e+00
1.564640402793884277e+00
1.797855019569396973e+00
2.009533882141113281e+00
2.238605737686157227e+00
2.517169713973999023e+00
2.857468605041503906e+00
3.251611709594726562e+00
3.673807621002197266e+00
4.085353374481201172e+00
4.446472167968750000e+00
4.726213455200195312e+00
4.904750823974609375e+00
4.975636005401611328e+00
4.949371814727783203e+00
4.848628997802734375e+00
4.696393966674804688e+00
4.508028984069824219e+00
4.291707992553710938e+00
4.055690765380859375e+00
3.815958976745605469e+00
3.598880052566528320e+00
3.437611818313598633e+00
3.360637426376342773e+00
3.377231359481811523e+00
3.468123435974121094e+00
3.584362745285034180e+00
3.658086299896240234e+00
3.625436305999755859e+00
3.447338104248046875e+00
3.116000413894653320e+00
2.652513027191162109e+00
2.101325511932373047e+00
1.519206523895263672e+00
9.599707126617431641e-01
4.608258008956909180e-01
3.490543365478515625e-02
-3.293336629867553711e-01
-6.634259223937988281e-01
-1.007066249847412109e+00
-1.390376806259155273e+00
-1.821412205696105957e+00
-2.286172866821289062e+00
-2.756564140319824219e+00
-3.199973583221435547e+00
-3.589253664016723633e+00
-3.913595676422119141e+00
-4.185031414031982422e+00
-4.432990550994873047e+00
-4.689435958862304688e+00
-4.974820137023925781e+00
-5.291004180908203125e+00
-5.620548248291015625e+00
-5.929755687713623047e+00
-6.175256729125976562e+00
-6.314062595367431641e+00
-6.313511371612548828e+00
-6.157539844512939453e+00
-5.849357604980468750e+00
-5.412692070007324219e+00
-4.892160892486572266e+00
-4.348955631256103516e+00
-3.849967718124389648e+00
-3.457054376602172852e+00
-3.226253986358642578e+00
-3.219727516174316406e+00
-3.517884254455566406e+00
-4.209983348846435547e+00
-5.355404853820800781e+00
-6.936492919921875000e+00
-8.836089134216308594e+00
-1.085166072845458984e+01
-1.273229694366455078e+01
-1.422319030761718750e+01
-1.510973930358886719e+01
-1.525311851501464844e+01
-1.460873413085937500e+01
-1.322550773620605469e+01
-1.123020553588867188e+01
-8.802832603454589844e+00
-6.148792266845703125e+00
-3.472043991088867188e+00
-9.515733718872070312e-01
1.277019500732421875e+00
3.132408142089843750e+00
4.589834690093994141e+00
5.675967216491699219e+00
6.456630706787109375e+00
7.018550395965576172e+00
7.450180053710937500e+00
7.826788902282714844e+00
8.202289581298828125e+00
8.607460021972656250e+00
9.052380561828613281e+00
9.531131744384765625e+00
1.002689743041992188e+01
1.051621627807617188e+01
1.097287178039550781e+01
1.137169837951660156e+01
1.169191360473632812e+01
1.191965484619140625e+01
1.204924392700195312e+01
1.208290672302246094e+01
1.202936172485351562e+01
1.190176200866699219e+01
1.171519184112548828e+01
1.148397254943847656e+01
1.121972846984863281e+01
1.093134307861328125e+01
1.062790298461914062e+01
1.032526397705078125e+01
1.005978584289550781e+01
9.909528732299804688e+00
9.996913909912109375e+00
1.044544792175292969e+01
1.131540203094482422e+01
1.256706809997558594e+01
1.406740951538085938e+01
1.562648582458496094e+01
1.704097747802734375e+01
1.812755393981933594e+01
1.874431800842285156e+01
1.880441665649414062e+01
1.828171539306640625e+01
1.720822143554687500e+01
1.566571617126464844e+01
1.377342033386230469e+01
1.167104721069335938e+01
9.497671127319335938e+00
7.372724533081054688e+00
5.387117385864257812e+00
3.603954315185546875e+00
2.060328483581542969e+00
7.640838623046875000e-01
-3.198671340942382812e-01
-1.302245140075683594e+00
-2.398793220520019531e+00
-3.892729759216308594e+00
-6.009442806243896484e+00
-8.779629707336425781e+00
-1.199316978454589844e+01
-1.527155494689941406e+01
-1.819747924804687500e+01
-2.042945480346679688e+01
-2.177550125122070312e+01
-2.222008895874023438e+01
-2.189294242858886719e+01
-2.099309158325195312e+01
-1.971960067749023438e+01
-1.824291610717773438e+01
-1.670399093627929688e+01
-1.522323703765869141e+01
-1.391801071166992188e+01
-1.291437721252441406e+01
-1.232233047485351562e+01
-1.218121147155761719e+01
-1.242995643615722656e+01
-1.293092060089111328e+01
-1.351690387725830078e+01
-1.402750205993652344e+01
-1.433496761322021484e+01
-1.436402130126953125e+01
-1.409360408782958984e+01
-1.353893852233886719e+01
-1.273410987854003906e+01
-1.172727203369140625e+01
-1.058016395568847656e+01
-9.364512443542480469e+00
-8.155623435974121094e+00
-7.021697998046875000e+00
-6.009988784790039062e+00
-5.139064311981201172e+00
-4.403319835662841797e+00
-3.784220457077026367e+00
-3.259372234344482422e+00
-2.806365966796875000e+00
-2.403249740600585938e+00
-2.028357267379760742e+00
-1.661413192749023438e+00
-1.286137342453002930e+00
-8.930205106735229492e-01
-4.809138178825378418e-01
-5.632573366165161133e-02
3.702328205108642578e-01
7.894122004508972168e-01
1.196201920509338379e+00
1.588425517082214355e+00
1.962180972099304199e+00
2.309973955154418945e+00
2.624535083770751953e+00
2.903819799423217773e+00
3.151609659194946289e+00
3.374276638031005859e+00
3.577481269836425781e+00
3.764675140380859375e+00
3.937315940856933594e+00
4.095890045166015625e+00
4.240724086761474609e+00
4.372330665588378906e+00
4.491143226623535156e+00
4.596608638763427734e+00
4.687326431274414062e+00
4.762701034545898438e+00
4.822454452514648438e+00
4.863745212554931641e+00
4.883528709411621094e+00
4.887702465057373047e+00
4.894941806793212891e+00
4.928946971893310547e+00
5.007749080657958984e+00
5.136219024658203125e+00
5.301984310150146484e+00
5.478505134582519531e+00
5.635506153106689453e+00
5.748019218444824219e+00
5.798837661743164062e+00
5.778303146362304688e+00
5.685241222381591797e+00
5.527683258056640625e+00
5.320504188537597656e+00
5.080759525299072266e+00
4.824522018432617188e+00
4.565721511840820312e+00
4.314940452575683594e+00
4.078450679779052734e+00
3.858494281768798828e+00
3.655103921890258789e+00
3.468900680541992188e+00
3.301609992980957031e+00
3.153071641921997070e+00
3.019463062286376953e+00
2.895301818847656250e+00
2.775910139083862305e+00
2.657669782638549805e+00
2.536959648132324219e+00
2.409561872482299805e+00
2.271317720413208008e+00
2.119835376739501953e+00
1.955949783325195312e+00
1.783610105514526367e+00
1.608306169509887695e+00
1.434961795806884766e+00
1.266372442245483398e+00
1.103013157844543457e+00
9.439837932586669922e-01
7.882291078567504883e-01
6.357335448265075684e-01
4.880495667457580566e-01
3.472191691398620605e-01
2.146008163690567017e-01
9.115944057703018188e-02
-2.235224843025207520e-02
-1.260633021593093872e-01
-2.212828695774078369e-01
-3.100063800811767578e-01
-3.939108550548553467e-01
-4.736968874931335449e-01
-5.493930578231811523e-01
-6.210026144981384277e-01
-6.888253688812255859e-01
-7.532704472541809082e-01
-8.144590854644775391e-01
-8.723026514053344727e-01
-9.270263910293579102e-01
-9.794111251831054688e-01
-1.030473947525024414e+00
-1.080993294715881348e+00
-1.131379246711730957e+00
-1.181822896003723145e+00
-1.232261419296264648e+00
-1.282039403915405273e+00
-1.329654097557067871e+00
-1.373106479644775391e+00
-1.410769581794738770e+00
-1.442013382911682129e+00
-1.467136263847351074e+00
-1.486827850341796875e+00
-1.501678228378295898e+00
-1.512050628662109375e+00
-1.518227577209472656e+00
-1.520571708679199219e+00
-1.519506335258483887e+00
-1.515280485153198242e+00
-1.507777929306030273e+00
-1.496646285057067871e+00
-1.481664299964904785e+00
-1.463043808937072754e+00
-1.441451191902160645e+00
-1.417781114578247070e+00
-1.392894029617309570e+00
-1.367456555366516113e+00
-1.341896057128906250e+00
-1.316434741020202637e+00
-1.291121244430541992e+00
-1.265846133232116699e+00
-1.240390419960021973e+00
-1.214441061019897461e+00
-1.187393188476562500e+00
-1.158150792121887207e+00
-1.125652670860290527e+00
-1.089712381362915039e+00
-1.050845265388488770e+00
-1.009663224220275879e+00
-9.673551917076110840e-01
-9.266557097434997559e-01
-8.914400339126586914e-01
-8.651635646820068359e-01
-8.500829339027404785e-01
-8.473384380340576172e-01
-8.566960692405700684e-01
-8.758793473243713379e-01
-8.999677300453186035e-01
-9.212279319763183594e-01
-9.297771453857421875e-01
-9.152951240539550781e-01
-8.695678114891052246e-01
-7.890462875366210938e-01
-6.764878034591674805e-01
-5.418201684951782227e-01
-4.025524854660034180e-01
-2.816091775894165039e-01
-2.007046639919281006e-01
-1.727495193481445312e-01
-1.981323212385177612e-01
-2.650223374366760254e-01
-3.518171310424804688e-01
-4.312275350093841553e-01
-4.761864542961120605e-01
-4.664215743541717529e-01
-3.925077617168426514e-01
-2.560746967792510986e-01
-6.807914376258850098e-02
1.535456925630569458e-01
3.867666721343994141e-01
6.085147857666015625e-01
7.975348234176635742e-01
9.369184970855712891e-01
1.016432523727416992e+00
1.034177660942077637e+00
9.966416358947753906e-01
9.169569611549377441e-01
8.120801448822021484e-01
6.997171044349670410e-01
5.955158472061157227e-01
5.109317898750305176e-01
4.521374702453613281e-01
4.200861155986785889e-01
4.114379882812500000e-01
4.198858439922332764e-01
4.375909566879272461e-01
4.566235840320587158e-01
4.702910780906677246e-01
4.740792214870452881e-01
4.659259617328643799e-01
4.458917081356048584e-01
4.155840575695037842e-01
3.776180148124694824e-01
3.351652026176452637e-01
2.915988564491271973e-01
2.502571046352386475e-01
2.142146080732345581e-01
1.859266459941864014e-01
1.668436080217361450e-01
1.571024358272552490e-01
1.552752256393432617e-01
1.586371213197708130e-01
1.644005775451660156e-01
1.709821820259094238e-01
1.779364347457885742e-01
1.849682927131652832e-01
1.915268301963806152e-01
1.970314085483551025e-01
2.008854150772094727e-01
2.024434655904769897e-01
2.012765556573867798e-01
1.973651200532913208e-01
1.910147219896316528e-01
1.827605217695236206e-01
1.733544170856475830e-01
1.636524349451065063e-01
1.544536501169204712e-01
1.464961469173431396e-01
1.404877305030822754e-01
1.369650065898895264e-01
1.360474377870559692e-01
1.372983902692794800e-01
1.398421525955200195e-01
1.426071226596832275e-01
1.444731354713439941e-01
1.443898081779479980e-01
1.415189653635025024e-01
1.352171003818511963e-01
1.249862387776374817e-01
1.106609180569648743e-01
9.253353625535964966e-02
7.123240828514099121e-02
4.771447926759719849e-02
2.331666648387908936e-02
-4.734098911285400391e-04
-2.241778373718261719e-02
-4.210789501667022705e-02
-6.043687462806701660e-02
-7.874426245689392090e-02
-9.706477820873260498e-02
-1.136133670806884766e-01
-1.255694329738616943e-01
-1.299039125442504883e-01
-1.240714788436889648e-01
-1.066309362649917603e-01
-7.751165330410003662e-02
-3.786060214042663574e-02
1.029521226882934570e-02
6.434027850627899170e-02
1.212618052959442139e-01
1.778308451175689697e-01
2.307555079460144043e-01
2.768288254737854004e-01
3.132339715957641602e-01
3.378640711307525635e-01
3.495027422904968262e-01
3.480040431022644043e-01
3.343518674373626709e-01
3.104009032249450684e-01
2.785379290580749512e-01
2.414629608392715454e-01
2.019415348768234253e-01
1.624786257743835449e-01
1.250548213720321655e-01
9.098508954048156738e-02
6.088863313198089600e-02
3.475792706012725830e-02
1.209301874041557312e-02
-7.827561348676681519e-03
-2.557033672928810120e-02
-4.148838296532630920e-02
-5.604901164770126343e-02
-6.995576620101928711e-02
-8.391743153333663940e-02
-9.841895103454589844e-02
-1.134773120284080505e-01
-1.284757554531097412e-01
-1.425210237503051758e-01
-1.549687385559082031e-01
-1.654428094625473022e-01
-1.737330853939056396e-01
-1.799606680870056152e-01
-1.846014261245727539e-01
-1.882737576961517334e-01
-1.915538609027862549e-01
-1.949247866868972778e-01
-1.989397257566452026e-01
-2.043261229991912842e-01
-2.119590640068054199e-01
-2.237104028463363647e-01
-2.450088560581207275e-01
-2.885406017303466797e-01
-3.754489421844482422e-01
-5.283612608909606934e-01
-7.587885856628417969e-01
-1.060630202293395996e+00
-1.413315534591674805e+00
-1.786857724189758301e+00
-2.145366430282592773e+00
-2.451311111450195312e+00
-2.669616222381591797e+00
-2.771255731582641602e+00
-2.739981651306152344e+00
-2.578840970993041992e+00
-2.307229518890380859e+00
-1.950526237487792969e+00
-1.534204483032226562e+00
-1.087499618530273438e+00
-6.491047143936157227e-01
-2.632321119308471680e-01
3.264796733856201172e-02
2.152838706970214844e-01
2.767173051834106445e-01
2.267253398895263672e-01
9.361207485198974609e-02
-8.225035667419433594e-02
-2.569607496261596680e-01
-3.884062767028808594e-01
-4.411376714706420898e-01
-3.933559656143188477e-01
-2.423417568206787109e-01
-4.107713699340820312e-03
2.918978929519653320e-01
6.103410720825195312e-01
9.185998439788818359e-01
1.194522738456726074e+00
1.430183410644531250e+00
1.630807399749755859e+00
1.811303496360778809e+00
1.991992712020874023e+00
2.192757844924926758e+00
2.426498174667358398e+00
2.695429801940917969e+00
2.991069793701171875e+00
3.294381141662597656e+00
3.575422525405883789e+00
3.798911571502685547e+00
3.938786506652832031e+00
3.991071701049804688e+00
3.971618175506591797e+00
3.901873588562011719e+00
3.799761533737182617e+00
3.683054447174072266e+00
3.572919130325317383e+00
3.487194538116455078e+00
3.431989669799804688e+00
3.401811122894287109e+00
3.383759737014770508e+00
3.359373331069946289e+00
3.306393384933471680e+00
3.202965259552001953e+00
3.031895875930786133e+00
2.783153533935546875e+00
2.455529451370239258e+00
2.057754993438720703e+00
1.607711315155029297e+00
1.128927946090698242e+00
6.457881927490234375e-01
1.800587177276611328e-01
-2.504659891128540039e-01
-6.328740119934082031e-01
-9.605721235275268555e-01
-1.234202384948730469e+00
-1.461007118225097656e+00
-1.652656078338623047e+00
-1.822332620620727539e+00
-1.982362747192382812e+00
-2.142756223678588867e+00
-2.308899879455566406e+00
-2.477558374404907227e+00
-2.635332345962524414e+00
-2.763841390609741211e+00
-2.848215103149414062e+00
-2.882081985473632812e+00
-2.867619991302490234e+00
-2.813574790954589844e+00
-2.732941627502441406e+00
-2.640255689620971680e+00
-2.548838853836059570e+00
-2.468769311904907227e+00
-2.405920028686523438e+00
-2.361978530883789062e+00
-2.335124015808105469e+00
-2.321001052856445312e+00
-2.313766479492187500e+00
-2.307140350341796875e+00
-2.295399188995361328e+00
-2.274167776107788086e+00
-2.240883350372314453e+00
-2.194886445999145508e+00
-2.137184858322143555e+00
-2.070005416870117188e+00
-1.996254801750183105e+00
-1.918986678123474121e+00
-1.840944290161132812e+00
-1.764240145683288574e+00
-1.690205574035644531e+00
-1.619388341903686523e+00
-1.551634788513183594e+00
-1.486232638359069824e+00
-1.422111988067626953e+00
-1.358065128326416016e+00
-1.292933106422424316e+00
-1.225756883621215820e+00
-1.155907988548278809e+00
-1.083137273788452148e+00
-1.007555603981018066e+00
-9.296395778656005859e-01
-8.501344323158264160e-01
-7.698295116424560547e-01
-6.894735097885131836e-01
-6.097694635391235352e-01
-5.312904119491577148e-01
-4.544521868228912354e-01
-3.795588612556457520e-01
-3.068345487117767334e-01
-2.364329993724822998e-01
-1.684193313121795654e-01
-1.027711033821105957e-01
-3.940327465534210205e-02
2.181458473205566406e-02
8.099697530269622803e-02
1.381989717483520508e-01
1.934785544872283936e-01
2.469370514154434204e-01
2.985087037086486816e-01
3.468649387359619141e-01
3.870708942413330078e-01
4.094477891921997070e-01
4.030048251152038574e-01
3.616797924041748047e-01
2.890037596225738525e-01
1.999283432960510254e-01
1.186388134956359863e-01
7.154494524002075195e-02
7.920217514038085938e-02
1.513496637344360352e-01
2.857608199119567871e-01
4.699234962463378906e-01
6.844108104705810547e-01
9.069052338600158691e-01
1.115985393524169922e+00
1.294076561927795410e+00
1.429314970970153809e+00
1.516252040863037109e+00
1.555527687072753906e+00
1.552785277366638184e+00
1.517101407051086426e+00
1.459224820137023926e+00
1.389936923980712891e+00
1.318756341934204102e+00
1.253085136413574219e+00
1.197794198989868164e+00
1.155184388160705566e+00
1.125244379043579102e+00
1.106151223182678223e+00
1.094929099082946777e+00
1.088128685951232910e+00
1.082396149635314941e+00
1.074879050254821777e+00
1.063478946685791016e+00
1.046966552734375000e+00
1.024974703788757324e+00
9.978811144828796387e-01
9.665961861610412598e-01
9.323157072067260742e-01
8.963063359260559082e-01
8.597350120544433594e-01
8.235449790954589844e-01
7.883805632591247559e-01
7.545737624168395996e-01
7.221991419792175293e-01
6.911180615425109863e-01
6.609980463981628418e-01
6.314017176628112793e-01
6.019043922424316406e-01
5.721724629402160645e-01
5.420365929603576660e-01
5.114728808403015137e-01
4.804576039314270020e-01
4.489570558071136475e-01
4.170518815517425537e-01
3.848701715469360352e-01
3.524671196937561035e-01
3.199232220649719238e-01
2.874551713466644287e-01
2.553640305995941162e-01
2.238896638154983521e-01
1.930595338344573975e-01
1.626268923282623291e-01
1.321094781160354614e-01
1.008046567440032959e-01
6.768310815095901489e-02
3.152597323060035706e-02
-8.312281221151351929e-03
-5.088975653052330017e-02
-9.241807460784912109e-02
-1.252047419548034668e-01
-1.392431557178497314e-01
-1.264901757240295410e-01
-8.411502093076705933e-02
-1.518693566322326660e-02
7.207413762807846069e-02
1.660466939210891724e-01
2.540487945079803467e-01
3.245096802711486816e-01
3.687120676040649414e-01
3.819730877876281738e-01
3.640212416648864746e-01
3.185098767280578613e-01
2.518773674964904785e-01
1.718432605266571045e-01
8.590206503868103027e-02
3.728270530700683594e-04
-7.982563972473144531e-02
-1.512163877487182617e-01
-2.118808627128601074e-01
-2.613498568534851074e-01
-3.002372980117797852e-01
-3.297662138938903809e-01
-3.516220450401306152e-01
-3.724911212921142578e-01
-4.184142649173736572e-01
-5.465294122695922852e-01
-8.290252685546875000e-01
-1.311909914016723633e+00
-1.984179139137268066e+00
-2.778234243392944336e+00
-3.587530136108398438e+00
-4.287742137908935547e+00
-4.766645431518554688e+00
-4.956915855407714844e+00
-4.846706867218017578e+00
-4.461672782897949219e+00
-3.842879295349121094e+00
-3.039072036743164062e+00
-2.105987787246704102e+00
-1.102936983108520508e+00
-8.973681926727294922e-02
8.738897442817687988e-01
1.731655001640319824e+00
2.438724279403686523e+00
2.968946456909179688e+00
3.315682888031005859e+00
3.487230777740478516e+00
3.502204418182373047e+00
3.387092828750610352e+00
3.174054145812988281e+00
2.898169040679931641e+00
2.595013141632080078e+00
2.297656774520874023e+00
2.032057046890258789e+00
1.813314318656921387e+00
1.646179914474487305e+00
1.528810143470764160e+00
1.455686092376708984e+00
1.418100357055664062e+00
1.403967618942260742e+00
1.398626923561096191e+00
1.386698961257934570e+00
1.354266285896301270e+00
1.290690422058105469e+00
1.189824700355529785e+00
1.050477027893066406e+00
8.759169578552246094e-01
6.725795269012451172e-01
4.485471248626708984e-01
2.124348878860473633e-01
-2.725774049758911133e-02
-2.625559568405151367e-01
-4.862808585166931152e-01
-6.926156282424926758e-01
-8.777959346771240234e-01
-1.039939165115356445e+00
-1.178238630294799805e+00
-1.292431235313415527e+00
-1.382632374763488770e+00
-1.449380159378051758e+00
-1.493694067001342773e+00
-1.516835212707519531e+00
-1.520085811614990234e+00
-1.505320549011230469e+00
-1.475722908973693848e+00
-1.435400962829589844e+00
-1.388503313064575195e+00
-1.338683962821960449e+00
-1.288764476776123047e+00
-1.240619897842407227e+00
-1.195199728012084961e+00
-1.152615308761596680e+00
-1.112648963928222656e+00
-1.075293302536010742e+00
-1.040061116218566895e+00
-1.004077553749084473e+00
-9.615585803985595703e-01
-9.061264991760253906e-01
-8.337061405181884766e-01
-7.439903020858764648e-01
-6.404420137405395508e-01
-5.292880535125732422e-01
-4.180699586868286133e-01
-3.142003417015075684e-01
-2.237375974655151367e-01
-1.497967094182968140e-01
-8.991044759750366211e-02
-3.412282466888427734e-02
3.291945159435272217e-02
1.258269101381301880e-01
2.521512508392333984e-01
4.094533324241638184e-01
5.863745212554931641e-01
7.662752270698547363e-01
9.314907789230346680e-01
1.066658020019531250e+00
1.160582542419433594e+00
1.207040071487426758e+00
1.205020904541015625e+00
1.158685684204101562e+00
1.077329993247985840e+00
9.762003421783447266e-01
8.779621124267578125e-01
8.105788230895996094e-01
7.989975214004516602e-01
8.566288948059082031e-01
9.822648763656616211e-01
1.160926342010498047e+00
1.366911172866821289e+00
1.568798303604125977e+00
1.735113859176635742e+00
1.839412689208984375e+00
1.863672494888305664e+00
1.799586772918701172e+00
1.648492097854614258e+00
1.420653343200683594e+00
1.134691953659057617e+00
8.172377347946166992e-01
5.008771419525146484e-01
2.178635597229003906e-01
-1.082801818847656250e-02
-1.882596015930175781e-01
-3.555156588554382324e-01
-6.055822968482971191e-01
-1.074364304542541504e+00
-1.889158844947814941e+00
-3.108386039733886719e+00
-4.695824146270751953e+00
-6.526848793029785156e+00
-8.414808273315429688e+00
-1.015181159973144531e+01
-1.154892826080322266e+01
-1.246539306640625000e+01
-1.282421493530273438e+01
-1.261409854888916016e+01
-1.188139915466308594e+01
-1.071600151062011719e+01
-9.233757019042968750e+00
-7.559297561645507812e+00
-5.813248634338378906e+00
-4.103888034820556641e+00
-2.521439552307128906e+00
-1.134431838989257812e+00
1.338696479797363281e-02
9.061539173126220703e-01
1.556155204772949219e+00
1.999279499053955078e+00
2.286962985992431641e+00
2.476924180984497070e+00
2.624511241912841797e+00
2.775902271270751953e+00
2.963815927505493164e+00
3.205848217010498047e+00
3.505158901214599609e+00
3.852943420410156250e+00
4.232002258300781250e+00
4.620701313018798828e+00
4.996727943420410156e+00
5.340179443359375000e+00
5.635719776153564453e+00
5.873709201812744141e+00
6.050375461578369141e+00
6.167196273803710938e+00
6.229743957519531250e+00
6.246248245239257812e+00
6.226123332977294922e+00
6.178656578063964844e+00
6.111993789672851562e+00
6.032489776611328125e+00
5.944425106048583984e+00
5.850053787231445312e+00
5.749897480010986328e+00
5.643203258514404297e+00
5.528459548950195312e+00
5.403900623321533203e+00
5.267929553985595703e+00
5.119422435760498047e+00
4.957904338836669922e+00
4.783594131469726562e+00
4.597347259521484375e+00
4.400523185729980469e+00
4.194809913635253906e+00
3.982038974761962891e+00
3.764017105102539062e+00
3.542393684387207031e+00
3.318573474884033203e+00
3.093675136566162109e+00
2.868531227111816406e+00
2.643722772598266602e+00
2.419634342193603516e+00
2.196521282196044922e+00
1.974573373794555664e+00
1.753970980644226074e+00
1.534927845001220703e+00
1.317714452743530273e+00
1.102667093276977539e+00
8.901829719543457031e-01
6.821886301040649414e-01
4.988611936569213867e-01
4.182938337326049805e-01
5.930780172348022461e-01
1.198759794235229492e+00
2.350793123245239258e+00
4.046700000762939453e+00
6.151373386383056641e+00
8.424302101135253906e+00
1.057381916046142578e+01
1.231506538391113281e+01
1.341594886779785156e+01
1.372871208190917969e+01
1.321043777465820312e+01
1.193166542053222656e+01
1.006771850585937500e+01
7.864459037780761719e+00
5.580610275268554688e+00
3.429192543029785156e+00
1.540678977966308594e+00
-4.232215881347656250e-02
-1.340459823608398438e+00
-2.400008201599121094e+00
-3.262733936309814453e+00
-3.953106403350830078e+00
-4.483942031860351562e+00
-4.872154712677001953e+00
-5.150395870208740234e+00
-5.367599487304687500e+00
-5.580484390258789062e+00
-5.840815067291259766e+00
-6.184321880340576172e+00
-6.626116752624511719e+00
-7.162884712219238281e+00
-7.778832435607910156e+00
-8.452254295349121094e+00
-9.160464286804199219e+00
-9.882402420043945312e+00
-1.060066032409667969e+01
-1.130463886260986328e+01
-1.199273204803466797e+01
-1.267067527770996094e+01
-1.334624385833740234e+01
-1.402155876159667969e+01
-1.468607807159423828e+01
-1.531420898437500000e+01
-1.586553955078125000e+01
-1.628595733642578125e+01
-1.651843070983886719e+01
-1.652400016784667969e+01
-1.629518508911132812e+01
-1.585229682922363281e+01
-1.522979640960693359e+01
-1.446224021911621094e+01
-1.357664775848388672e+01
-1.259396553039550781e+01
-1.153538894653320312e+01
-1.042661857604980469e+01
-9.297307968139648438e+00
-8.177333831787109375e+00
-7.092504501342773438e+00
-6.061933517456054688e+00
-5.098372459411621094e+00
-4.210428237915039062e+00
-3.404451131820678711e+00
-2.685315608978271484e+00
-2.056111812591552734e+00
-1.516921401023864746e+00
-1.063407540321350098e+00
-6.862086057662963867e-01
-3.716982603073120117e-01
-1.038869619369506836e-01
1.332122087478637695e-01
3.535019159317016602e-01
5.675764083862304688e-01
7.825300693511962891e-01
1.002548456192016602e+00
1.229829549789428711e+00
1.465389251708984375e+00
1.709303617477416992e+00
1.960264682769775391e+00
2.215029954910278320e+00
2.468414545059204102e+00
2.714000701904296875e+00
2.945393085479736328e+00
3.157558202743530273e+00
3.347704410552978516e+00
3.515477180480957031e+00
3.662634849548339844e+00
3.792537212371826172e+00
3.909610033035278320e+00
4.018814086914062500e+00
4.125118255615234375e+00
4.232975006103515625e+00
4.345880508422851562e+00
4.466098308563232422e+00
4.594485282897949219e+00
4.730411052703857422e+00
4.871886253356933594e+00
5.015823364257812500e+00
5.158271789550781250e+00
5.294707298278808594e+00
5.420557022094726562e+00
5.531892776489257812e+00
5.625963211059570312e+00
5.701352596282958984e+00
5.757852554321289062e+00
5.796244144439697266e+00
5.818088054656982422e+00
5.825507164001464844e+00
5.820912361145019531e+00
5.806650161743164062e+00
5.784636020660400391e+00
5.756131172180175781e+00
5.721775054931640625e+00
5.681859970092773438e+00
5.636697769165039062e+00
5.586939334869384766e+00
5.533750534057617188e+00
5.478807926177978516e+00
5.424080848693847656e+00
5.371361732482910156e+00
5.321622371673583984e+00
5.274316310882568359e+00
5.226927757263183594e+00
5.175171852111816406e+00
5.113843917846679688e+00
5.037746429443359375e+00
4.942237377166748047e+00
4.823645114898681641e+00
4.680041790008544922e+00
4.512233734130859375e+00
4.324155330657958984e+00
4.122086048126220703e+00
3.913014411926269531e+00
3.703030109405517578e+00
3.496391296386718750e+00
3.295356273651123047e+00
3.100564956665039062e+00
2.911713600158691406e+00
2.728206872940063477e+00
2.549492835998535156e+00
2.375140428543090820e+00
2.204958438873291016e+00
2.039191722869873047e+00
1.878638029098510742e+00
1.724514126777648926e+00
1.577888727188110352e+00
1.438863992691040039e+00
1.305933833122253418e+00
1.175828933715820312e+00
1.044042587280273438e+00
9.059173464775085449e-01
7.577745914459228516e-01
5.975818037986755371e-01
4.250417947769165039e-01
2.411803007125854492e-01
4.759185388684272766e-02
-1.540502011775970459e-01
-3.617837727069854736e-01
-5.726308822631835938e-01
-7.818892598152160645e-01
-9.833159446716308594e-01
-1.170299768447875977e+00
-1.337168216705322266e+00
-1.480271100997924805e+00
-1.598798394203186035e+00
-1.694962024688720703e+00
-1.773311257362365723e+00
-1.839428544044494629e+00
-1.898573875427246094e+00
-1.954791426658630371e+00
-2.010589361190795898e+00
-2.067035436630249023e+00
-2.124177932739257812e+00
-2.181559801101684570e+00
-2.238349437713623047e+00
-2.292920589447021484e+00
-2.342229127883911133e+00
-2.381610155105590820e+00
-2.405757904052734375e+00
-2.411074876785278320e+00
-2.397968292236328125e+00
-2.370951414108276367e+00
-2.336158752441406250e+00
-2.298089027404785156e+00
-2.257571220397949219e+00
-2.211868524551391602e+00
-2.156624555587768555e+00
-2.088331699371337891e+00
-2.006577730178833008e+00
-1.915949106216430664e+00
-1.826208114624023438e+00
-1.749714612960815430e+00
-1.697586059570312500e+00
-1.675875186920166016e+00
-1.682964086532592773e+00
-1.712498784065246582e+00
-1.760746359825134277e+00
-1.828726530075073242e+00
-1.917345166206359863e+00
-2.023472785949707031e+00
-2.140527963638305664e+00
-2.261384248733520508e+00
-2.380892038345336914e+00
-2.496466159820556641e+00
-2.607194423675537109e+00
-2.712643623352050781e+00
-2.811048984527587891e+00
-2.896498203277587891e+00
-2.956892967224121094e+00
-2.975178956985473633e+00
-2.934252738952636719e+00
-2.823203086853027344e+00
-2.641821622848510742e+00
-2.401808977127075195e+00
-2.124714851379394531e+00
-1.837528347969055176e+00
-1.567366242408752441e+00
-1.336727142333984375e+00
-1.160218715667724609e+00
-1.043053150177001953e+00
-9.811522960662841797e-01
-9.625654816627502441e-01
-9.699260592460632324e-01
-9.836198091506958008e-01
-9.851637482643127441e-01
-9.601715803146362305e-01
-9.004436135292053223e-01
-8.048654794692993164e-01
-6.788328289985656738e-01
-5.322811007499694824e-01
-3.769848942756652832e-01
-2.240726053714752197e-01
-8.240529894828796387e-02
4.208418726921081543e-02
1.463424265384674072e-01
2.297930121421813965e-01
2.937807440757751465e-01
3.408299684524536133e-01
3.737644553184509277e-01
3.949729204177856445e-01
4.060982465744018555e-01
4.081355929374694824e-01
4.016892313957214355e-01
3.871999680995941162e-01
3.651501536369323730e-01
3.363118767738342285e-01
3.020146489143371582e-01
2.643470466136932373e-01
2.261907458305358887e-01
1.910202056169509888e-01
1.624851077795028687e-01
1.438445001840591431e-01
1.373751163482666016e-01
1.439667046070098877e-01
1.630950570106506348e-01
1.931553483009338379e-01
2.319514155387878418e-01
2.771384119987487793e-01
3.265207409858703613e-01
3.782093226909637451e-01
4.306922554969787598e-01
4.829189777374267578e-01
5.345093011856079102e-01
5.859836339950561523e-01
6.386885643005371094e-01
6.942641139030456543e-01
7.538931965827941895e-01
8.177474141120910645e-01
8.848943114280700684e-01
9.535960555076599121e-01
1.021706819534301758e+00
1.086945533752441406e+00
1.147011876106262207e+00
1.199593067169189453e+00
1.242229342460632324e+00
1.272031426429748535e+00
1.285492658615112305e+00
1.278732776641845703e+00
1.248257398605346680e+00
1.192120075225830078e+00
1.111230134963989258e+00
1.010275602340698242e+00
8.977612257003784180e-01
7.849640846252441406e-01
6.838912963867187500e-01
6.048414707183837891e-01
5.544561147689819336e-01
5.347214937210083008e-01
5.428926348686218262e-01
5.721436142921447754e-01
6.127895712852478027e-01
6.539470553398132324e-01
6.851722002029418945e-01
6.974022984504699707e-01
6.826878786087036133e-01
6.333357095718383789e-01
5.429700613021850586e-01
4.104945361614227295e-01
2.411043047904968262e-01
3.728103637695312500e-02
-2.101948857307434082e-01
-5.137249827384948730e-01
-8.706325292587280273e-01
-1.253873944282531738e+00
-1.615623235702514648e+00
-1.901499032974243164e+00
-2.066839456558227539e+00
-2.083712816238403320e+00
-1.939793586730957031e+00
-1.638004302978515625e+00
-1.200253963470458984e+00
-6.689670085906982422e-01
-1.001610755920410156e-01
4.491974115371704102e-01
9.300543069839477539e-01
1.301387786865234375e+00
1.531744718551635742e+00
1.607536554336547852e+00
1.535745978355407715e+00
1.339043259620666504e+00
1.054298043251037598e+00
7.336945533752441406e-01
4.389602243900299072e-01
2.267603278160095215e-01
1.325120925903320312e-01
1.592640876770019531e-01
2.717220485210418701e-01
4.018066227436065674e-01
4.811275303363800049e-01
4.873844087123870850e-01
4.595407247543334961e-01
4.670010507106781006e-01
5.678949356079101562e-01
7.889534831047058105e-01
1.125190019607543945e+00
1.545001626014709473e+00
1.997464537620544434e+00
2.423627138137817383e+00
2.768854856491088867e+00
2.992404460906982422e+00
3.072380542755126953e+00
3.005104303359985352e+00
2.799549102783203125e+00
2.469983577728271484e+00
2.031836986541748047e+00
1.503797173500061035e+00
9.118633270263671875e-01
2.891564965248107910e-01
-3.264883160591125488e-01
-8.916620016098022461e-01
-1.355999231338500977e+00
-1.668081045150756836e+00
-1.788338184356689453e+00
-1.700664043426513672e+00
-1.417607545852661133e+00
-9.792768359184265137e-01
-4.473156929016113281e-01
1.045486927032470703e-01
6.020532846450805664e-01
9.822784662246704102e-01
1.203169941902160645e+00
1.248060703277587891e+00
1.123924016952514648e+00
8.555364608764648438e-01
4.795547723770141602e-01
3.903627395629882812e-02
-4.223943948745727539e-01
-8.651466965675354004e-01
-1.256816864013671875e+00
-1.575280427932739258e+00
-1.812585830688476562e+00
-1.978876948356628418e+00
-2.100875616073608398e+00
-2.210801839828491211e+00
-2.331918954849243164e+00
-2.470351457595825195e+00
-2.615735769271850586e+00
-2.747708320617675781e+00
-2.844196319580078125e+00
-2.888336181640625000e+00
-2.872865438461303711e+00
-2.801153659820556641e+00
-2.684468746185302734e+00
-2.537355899810791016e+00
-2.372975111007690430e+00
-2.199340105056762695e+00
-2.018390655517578125e+00
-1.829299688339233398e+00
-1.634124517440795898e+00
-1.441652297973632812e+00
-1.267342209815979004e+00
-1.131232619285583496e+00
-1.054854393005371094e+00
-1.052029371261596680e+00
-1.113495826721191406e+00
-1.201200246810913086e+00
-1.260761737823486328e+00
-1.240387558937072754e+00
-1.106232166290283203e+00
-8.510484695434570312e-01
-4.941127300262451172e-01
-7.470643520355224609e-02
3.571501672267913818e-01
7.511364221572875977e-01
1.067276000976562500e+00
1.283861994743347168e+00
1.399523019790649414e+00
1.428943872451782227e+00
1.393837213516235352e+00
1.315418243408203125e+00
1.214068174362182617e+00
1.111865639686584473e+00
1.031857132911682129e+00
9.938980340957641602e-01
1.008549451828002930e+00
1.072583436965942383e+00
1.170594692230224609e+00
1.281571626663208008e+00
1.385687112808227539e+00
1.468573927879333496e+00
1.522515177726745605e+00
1.545238852500915527e+00
1.537602424621582031e+00
1.501091957092285156e+00
1.436473727226257324e+00
1.344936370849609375e+00
1.229596853256225586e+00
1.095098376274108887e+00
9.473228454589843750e-01
7.949013113975524902e-01
6.509809494018554688e-01
5.323179960250854492e-01
4.554240703582763672e-01
4.329909682273864746e-01
4.723211526870727539e-01
5.746338367462158203e-01
7.338837981224060059e-01
9.359971284866333008e-01
1.160573840141296387e+00
1.384466648101806641e+00
1.584983229637145996e+00
1.741716742515563965e+00
1.837315082550048828e+00
1.858550548553466797e+00
1.798688292503356934e+00
1.659789443016052246e+00
1.453281641006469727e+00
1.198784112930297852e+00
9.210728406906127930e-01
6.458026170730590820e-01
3.967314958572387695e-01
1.953314542770385742e-01
6.023350358009338379e-02
5.316376686096191406e-03
3.722891211509704590e-02
1.523602008819580078e-01
3.343767523765563965e-01
5.550320148468017578e-01
7.794301509857177734e-01
9.738676548004150391e-01
1.112476944923400879e+00
1.180346727371215820e+00
1.173728704452514648e+00
1.098546028137207031e+00
9.676930904388427734e-01
7.978323698043823242e-01
6.065609455108642578e-01
4.100871086120605469e-01
2.212487459182739258e-01
4.806470870971679688e-02
-1.067639589309692383e-01
-2.451496124267578125e-01
-3.718756437301635742e-01
-4.925847053527832031e-01
-6.125625371932983398e-01
-7.377494573593139648e-01
-8.774131536483764648e-01
-1.042614459991455078e+00
-1.239711284637451172e+00
-1.467350006103515625e+00
-1.716171264648437500e+00
-1.965562462806701660e+00
-2.183680772781372070e+00
-2.335205554962158203e+00
-2.391520977020263672e+00
-2.339724540710449219e+00
-2.188224792480468750e+00
-1.965335845947265625e+00
-1.711645841598510742e+00
-1.470905661582946777e+00
-1.282765507698059082e+00
-1.178106069564819336e+00
-1.175998568534851074e+00
-1.281391382217407227e+00
-1.485542774200439453e+00
-1.771553993225097656e+00
-2.121569156646728516e+00
-2.519469976425170898e+00
-2.947579383850097656e+00
-3.380286693572998047e+00
-3.779179096221923828e+00
-4.094589233398437500e+00
-4.275142669677734375e+00
-4.281010627746582031e+00
-4.093749046325683594e+00
-3.718518018722534180e+00
-3.180096864700317383e+00
-2.517318248748779297e+00
-1.777507662773132324e+00
-1.009256362915039062e+00
-2.567223310470581055e-01
4.399477243423461914e-01
1.043034553527832031e+00
1.521400570869445801e+00
1.857696533203125000e+00
2.051677227020263672e+00
2.117381095886230469e+00
2.077670335769653320e+00
1.960284948348999023e+00
1.795723557472229004e+00
1.614834785461425781e+00
1.445219039916992188e+00
1.307508707046508789e+00
1.213122367858886719e+00
1.164204835891723633e+00
1.155195951461791992e+00
1.174901366233825684e+00
1.208445906639099121e+00
1.239233255386352539e+00
1.251160860061645508e+00
1.230966210365295410e+00
1.170127391815185547e+00
1.065619468688964844e+00
9.195692539215087891e-01
7.387206554412841797e-01
5.341092348098754883e-01
3.204912245273590088e-01
1.151986718177795410e-01
-6.392621994018554688e-02
-2.017511725425720215e-01
-2.891123294830322266e-01
-3.241624236106872559e-01
-3.108496069908142090e-01
-2.552613615989685059e-01
-1.621020436286926270e-01
-3.375422954559326172e-02
1.278087496757507324e-01
3.182007670402526855e-01
5.288659334182739258e-01
7.472363710403442383e-01
9.585361480712890625e-01
1.148220419883728027e+00
1.304052829742431641e+00
1.417399764060974121e+00
1.483821749687194824e+00
1.503118991851806641e+00
1.478868007659912109e+00
1.417477726936340332e+00
1.326987028121948242e+00
1.215971231460571289e+00
1.092729330062866211e+00
9.647004008293151855e-01
8.381099104881286621e-01
7.179079055786132812e-01
6.079065203666687012e-01
5.108798742294311523e-01
4.284996986389160156e-01
3.612031936645507812e-01
3.081471323966979980e-01
2.673147320747375488e-01
2.358240038156509399e-01
2.104921489953994751e-01
1.885546743869781494e-01
1.682107895612716675e-01
1.486728340387344360e-01
1.297338157892227173e-01
1.112171858549118042e-01
9.265646338462829590e-02
7.330027222633361816e-02
5.240146815776824951e-02
2.970835566520690918e-02
5.979061126708984375e-03
-1.680302619934082031e-02
-3.575709462165832520e-02
-4.781603813171386719e-02
-5.044677853584289551e-02
-4.218706488609313965e-02
-2.300013601779937744e-02
5.470946431159973145e-03
3.970952332019805908e-02
7.429276406764984131e-02
1.021941676735877991e-01
1.153872758150100708e-01
1.054662913084030151e-01
6.448523700237274170e-02
-1.322744786739349365e-02
-1.282997429370880127e-01
-2.739886045455932617e-01
-4.359243214130401611e-01
-5.942172408103942871e-01
-7.268988490104675293e-01
-8.139366507530212402e-01
-8.414218425750732422e-01
-8.047236204147338867e-01
-7.092474102973937988e-01
-5.686363577842712402e-01
-4.014384150505065918e-01
-2.276830971240997314e-01
-6.630560755729675293e-02
6.706140935420989990e-02
1.626821160316467285e-01
2.182423174381256104e-01
2.373765856027603149e-01
2.261794507503509521e-01
1.902842521667480469e-01
1.342908740043640137e-01
6.322361528873443604e-02
-1.677380874752998352e-02
-1.004964113235473633e-01
-1.865747272968292236e-01
-2.772612273693084717e-01
-3.737604618072509766e-01
-4.706718325614929199e-01
-5.548466444015502930e-01
-6.173061132431030273e-01
-6.775658130645751953e-01
-7.866216301918029785e-01
-9.898023605346679688e-01
-1.290021300315856934e+00
-1.645052909851074219e+00
-1.986901998519897461e+00
-2.244889259338378906e+00
-2.363441705703735352e+00
-2.311090946197509766e+00
-2.083472013473510742e+00
-1.701947689056396484e+00
-1.205952286720275879e+00
-6.420986652374267578e-01
-5.749732255935668945e-02
5.013413429260253906e-01
9.906451106071472168e-01
1.376846432685852051e+00
1.644596815109252930e+00
1.798347234725952148e+00
1.857005834579467773e+00
1.845981001853942871e+00
1.789956927299499512e+00
1.707481265068054199e+00
1.608438730239868164e+00
1.495330572128295898e+00
1.366326570510864258e+00
1.219000101089477539e+00
1.055644273757934570e+00
8.863111734390258789e-01
7.264665365219116211e-01
5.921798944473266602e-01
4.949430823326110840e-01
4.390327930450439453e-01
4.244590103626251221e-01
4.500658512115478516e-01
5.109027624130249023e-01
5.948972105979919434e-01
6.852309703826904297e-01
7.651480436325073242e-01
8.206355571746826172e-01
8.425542116165161133e-01
8.280701041221618652e-01
7.787913084030151367e-01
6.970732212066650391e-01
5.833767652511596680e-01
4.366931915283203125e-01
2.588135004043579102e-01
5.985826253890991211e-02
-1.396944224834442139e-01
-3.135973513126373291e-01
-4.379032552242279053e-01
-4.969500899314880371e-01
-4.860386252403259277e-01
-4.120862782001495361e-01
-2.930409908294677734e-01
-1.546589136123657227e-01
-2.397923171520233154e-02
7.735794782638549805e-02
1.369088441133499146e-01
1.519204378128051758e-01
1.275288462638854980e-01
7.404386997222900391e-02
4.684716463088989258e-03
-6.626236438751220703e-02
-1.254136860370635986e-01
-1.617362201213836670e-01
-1.676651984453201294e-01
-1.406200975179672241e-01
-8.392006158828735352e-02
-5.762934684753417969e-03
8.349791169166564941e-02
1.745965480804443359e-01
2.617191970348358154e-01
3.427499532699584961e-01
4.174845814704895020e-01
4.865395426750183105e-01
5.538464188575744629e-01
6.275537014007568359e-01
7.102389335632324219e-01
7.855067253112792969e-01
8.199949264526367188e-01
7.828534841537475586e-01
6.639474630355834961e-01
4.765192270278930664e-01
2.482384443283081055e-01
1.054179668426513672e-02
-2.094084620475769043e-01
-3.933653831481933594e-01
-5.331653952598571777e-01
-6.290191411972045898e-01
-6.861528158187866211e-01
-7.115509510040283203e-01
-7.123254537582397461e-01
-6.958080530166625977e-01
-6.702570915222167969e-01
-6.448543071746826172e-01
-6.283307671546936035e-01
-6.270616054534912109e-01
-6.440480947494506836e-01
-6.791409254074096680e-01
-7.299640178680419922e-01
-7.931430339813232422e-01
-8.653754591941833496e-01
-9.430942535400390625e-01
-1.020724415779113770e+00
-1.090089321136474609e+00
-1.142363548278808594e+00
-1.170802712440490723e+00
-1.172299504280090332e+00
-1.147509336471557617e+00
-1.100152254104614258e+00
-1.036109328269958496e+00
-9.625726342201232910e-01
-8.871016502380371094e-01
-8.165892958641052246e-01
-7.563258409500122070e-01
-7.093353867530822754e-01
-6.762087941169738770e-01
-6.554167866706848145e-01
-6.439770460128784180e-01
-6.383561491966247559e-01
-6.351494789123535156e-01
-6.311966180801391602e-01
-6.234679222106933594e-01
-6.092509627342224121e-01
-5.865948200225830078e-01
-5.546480417251586914e-01
-5.138635039329528809e-01
-4.660163819789886475e-01
-4.138342738151550293e-01
-3.606367111206054688e-01
-3.101500570774078369e-01
-2.657961249351501465e-01
-2.295611202716827393e-01
-2.014557719230651855e-01
-1.796956658363342285e-01
-1.608497649431228638e-01
-1.401779949665069580e-01
-1.132256537675857544e-01
-7.785142958164215088e-02
-3.468385338783264160e-02
1.384072005748748779e-02
6.435689330101013184e-02
1.128772124648094177e-01
1.549665331840515137e-01
1.864485442638397217e-01
2.046656757593154907e-01
2.094384729862213135e-01
2.027448266744613647e-01
1.871120333671569824e-01
1.647674739360809326e-01
1.387874633073806763e-01
1.141006648540496826e-01
9.668743610382080078e-02
9.165135025978088379e-02
1.005706191062927246e-01
1.198841333389282227e-01
1.435970067977905273e-01
1.679978966712951660e-01
1.929654181003570557e-01
2.203460335731506348e-01
2.520960569381713867e-01
2.888969779014587402e-01
3.297932744026184082e-01
3.726602196693420410e-01
4.148477911949157715e-01
4.538548886775970459e-01
4.879727363586425781e-01
5.167312026023864746e-01
5.410870909690856934e-01
5.631155371665954590e-01
5.847967863082885742e-01
6.068162918090820312e-01
6.286669969558715820e-01
6.490672826766967773e-01
6.655008792877197266e-01
6.742718815803527832e-01
6.722310781478881836e-01
6.586983203887939453e-01
6.358631253242492676e-01
6.071031093597412109e-01
5.746074914932250977e-01
5.393111705780029297e-01
5.030641555786132812e-01
4.700175821781158447e-01
4.461602270603179932e-01
4.375759959220886230e-01
4.477928578853607178e-01
4.752801060676574707e-01
5.129004120826721191e-01
5.500280261039733887e-01
5.759121179580688477e-01
5.819789171218872070e-01
5.620843172073364258e-01
5.118904113769531250e-01
4.289324283599853516e-01
3.135523796081542969e-01
1.696917116641998291e-01
4.972279071807861328e-03
-1.689831614494323730e-01
-3.354565203189849854e-01
-4.732282161712646484e-01
-5.616260170936584473e-01
-5.869048833847045898e-01
-5.450310707092285156e-01
-4.415541887283325195e-01
-2.897331714630126953e-01
-1.065504550933837891e-01
9.047922492027282715e-02
2.831330895423889160e-01
4.511569738388061523e-01
5.729447603225708008e-01
6.297384500503540039e-01
6.126230955123901367e-01
5.280717611312866211e-01
3.982748091220855713e-01
2.554560303688049316e-01
1.320562809705734253e-01
5.208373069763183594e-02
2.788794040679931641e-02
6.116232275962829590e-02
1.444932818412780762e-01
2.620677053928375244e-01
3.914374709129333496e-01
5.080280303955078125e-01
5.908881425857543945e-01
6.273993253707885742e-01
6.156237721443176270e-01
5.631859302520751953e-01
4.834621846675872803e-01
3.913275301456451416e-01
2.995285391807556152e-01
2.159301936626434326e-01
1.376667320728302002e-01
4.380467534065246582e-02
-9.429872035980224609e-02
-2.873929440975189209e-01
-5.180971026420593262e-01
-7.498776912689208984e-01
-9.407259225845336914e-01
-1.056537151336669922e+00
-1.079518914222717285e+00
-1.009761571884155273e+00
-8.624008893966674805e-01
-6.619994640350341797e-01
-4.359698295593261719e-01
-2.095683813095092773e-01
-3.513455390930175781e-03
1.667769402265548706e-01
2.915067374706268311e-01
3.669706583023071289e-01
3.954678177833557129e-01
3.834995627403259277e-01
3.382470905780792236e-01
2.645478844642639160e-01
1.649218201637268066e-01
4.141923785209655762e-02
-1.029225885868072510e-01
-2.663180232048034668e-01
-4.560945630073547363e-01
-6.903063058853149414e-01
-9.818331003189086914e-01
-1.314150691032409668e+00
-1.628193855285644531e+00
-1.836653590202331543e+00
-1.860798597335815430e+00
-1.662428140640258789e+00
-1.253778219223022461e+00
-6.890815496444702148e-01
-4.704794287681579590e-02
5.886769294738769531e-01
1.145795464515686035e+00
1.572715282440185547e+00
1.841402769088745117e+00
1.946242928504943848e+00
1.899587512016296387e+00
1.724254965782165527e+00
1.446982741355895996e+00
1.097660064697265625e+00
7.114477753639221191e-01
3.272958397865295410e-01
-1.759785413742065430e-02
-2.942899167537689209e-01
-4.880078434944152832e-01
-6.020864844322204590e-01
-6.568527817726135254e-01
-6.820225715637207031e-01
-7.055295705795288086e-01
-7.441176176071166992e-01
-8.004100322723388672e-01
-8.671876192092895508e-01
-9.347438812255859375e-01
-9.959117770195007324e-01
-1.047123908996582031e+00
-1.087324976921081543e+00
-1.115821719169616699e+00
-1.129979133605957031e+00
-1.124680876731872559e+00
-1.094929099082946777e+00
-1.039826154708862305e+00
-9.637520313262939453e-01
-8.731135129928588867e-01
-7.713508605957031250e-01
-6.575617790222167969e-01
-5.299928784370422363e-01
-3.890284895896911621e-01
-2.370754480361938477e-01
-7.699623703956604004e-02
8.893254399299621582e-02
2.585013210773468018e-01
4.280753731727600098e-01
5.900940895080566406e-01
7.321994304656982422e-01
8.393384218215942383e-01
8.939768671989440918e-01
8.760599493980407715e-01
7.683018445968627930e-01
5.641020536422729492e-01
2.736384570598602295e-01
-7.465651631355285645e-02
-4.394686222076416016e-01
-7.757714390754699707e-01
-1.043012738227844238e+00
-1.211246013641357422e+00
-1.264382004737854004e+00
-1.200428247451782227e+00
-1.030499100685119629e+00
-7.764444351196289062e-01
-4.668595790863037109e-01
-1.331854462623596191e-01
1.939544081687927246e-01
4.892344176769256592e-01
7.364311814308166504e-01
9.292886257171630859e-01
1.069837450981140137e+00
1.165827989578247070e+00
1.227972269058227539e+00
1.267316102981567383e+00
1.293657541275024414e+00
1.315154552459716797e+00
1.338144421577453613e+00
1.366673588752746582e+00
1.401906371116638184e+00
1.441672921180725098e+00
1.480205178260803223e+00
1.508505702018737793e+00
1.516020417213439941e+00
1.493107438087463379e+00
1.433918476104736328e+00
1.339298486709594727e+00
1.217897176742553711e+00
1.084459185600280762e+00
9.557965993881225586e-01
8.459849357604980469e-01
7.629077434539794922e-01
7.074293494224548340e-01
6.753997206687927246e-01
6.608101129531860352e-01
6.576181650161743164e-01
6.602419018745422363e-01
6.645570993423461914e-01
6.698064208030700684e-01
6.793226003646850586e-01
6.983181238174438477e-01
7.299726009368896484e-01
7.726956605911254883e-01
8.204154968261718750e-01
8.653652667999267578e-01
9.011058807373046875e-01
9.238275289535522461e-01
9.319554567337036133e-01
9.254363775253295898e-01
9.053447246551513672e-01
8.733460903167724609e-01
8.309271335601806641e-01
7.790644168853759766e-01
7.186497449874877930e-01
6.510356664657592773e-01
5.778836011886596680e-01
5.002956390380859375e-01
4.178793430328369141e-01
3.284058570861816406e-01
2.285320758819580078e-01
1.153687238693237305e-01
-1.202952861785888672e-02
-1.520718336105346680e-01
-3.010790348052978516e-01
-4.543571472167968750e-01
-6.074764728546142578e-01
-7.573287487030029297e-01
-9.024801850318908691e-01
-1.042626619338989258e+00
-1.177469015121459961e+00
-1.305966019630432129e+00
-1.426679372787475586e+00
-1.538825035095214844e+00
-1.643079519271850586e+00
-1.741296291351318359e+00
-1.834927558898925781e+00
-1.923130273818969727e+00
-2.001955032348632812e+00
-2.065035820007324219e+00
-2.105418205261230469e+00
-2.117949485778808594e+00
-2.101670265197753906e+00
-2.061363935470581055e+00
-2.006540775299072266e+00
-1.947706103324890137e+00
-1.892081379890441895e+00
-1.840762495994567871e+00
-1.788190722465515137e+00
-1.723310828208923340e+00
-1.631997108459472656e+00
-1.501549124717712402e+00
-1.326860427856445312e+00
-1.115481734275817871e+00
-8.881047964096069336e-01
-6.735337376594543457e-01
-5.007169246673583984e-01
-3.914728462696075439e-01
-3.561644852161407471e-01
-3.927483558654785156e-01
-4.885906875133514404e-01
-6.239088773727416992e-01
-7.746642827987670898e-01
-9.136905670166015625e-01
-1.013231754302978516e+00
-1.051082372665405273e+00
-1.016935825347900391e+00
-9.159921407699584961e-01
-7.688413858413696289e-01
-6.067308187484741211e-01
-4.632475078105926514e-01
-3.652744889259338379e-01
-3.261914253234863281e-01
-3.428197503089904785e-01
-3.965803086757659912e-01
-4.593732655048370361e-01
-5.026591420173645020e-01
-5.056287646293640137e-01
-4.600539803504943848e-01
-3.717542886734008789e-01
-2.575587630271911621e-01
-1.379450261592864990e-01
-2.905592322349548340e-02
6.181240081787109375e-02
1.351780295372009277e-01
1.949142813682556152e-01
2.450635731220245361e-01
2.890702784061431885e-01
3.295462727546691895e-01
3.681035041809082031e-01
4.051025807857513428e-01
4.385355412960052490e-01
4.629970192909240723e-01
4.705891609191894531e-01
4.539618790149688721e-01
4.095153510570526123e-01
3.378431797027587891e-01
2.414843440055847168e-01
1.230496168136596680e-01
-1.501089334487915039e-02
-1.697059273719787598e-01
-3.367681503295898438e-01
-5.101069211959838867e-01
-6.816815137863159180e-01
-8.434480428695678711e-01
-9.899870157241821289e-01
-1.118875145912170410e+00
-1.230572462081909180e+00
-1.328482389450073242e+00
-1.416662454605102539e+00
-1.496633768081665039e+00
-1.567546606063842773e+00
-1.630079269409179688e+00
-1.688978195190429688e+00
-1.749948978424072266e+00
-1.813697814941406250e+00
-1.873303651809692383e+00
-1.917016983032226562e+00
-1.934062004089355469e+00
-1.920738935470581055e+00
-1.884823083877563477e+00
-1.844878911972045898e+00
-1.823176860809326172e+00
-1.837039470672607422e+00
-1.892966032028198242e+00
-1.982765674591064453e+00
-2.081798791885375977e+00
-2.151767253875732422e+00
-2.147690296173095703e+00
-2.026167392730712891e+00
-1.753126144409179688e+00
-1.309585094451904297e+00
-6.935491561889648438e-01
8.206748962402343750e-02
9.940941333770751953e-01
2.015091180801391602e+00
3.118396759033203125e+00
4.279203891754150391e+00
5.471155643463134766e+00
6.661566257476806641e+00
7.809349060058593750e+00
8.866973876953125000e+00
9.785367012023925781e+00
1.052034854888916016e+01
1.103782558441162109e+01
1.131575202941894531e+01
1.134447669982910156e+01
1.112682342529296875e+01
1.067752933502197266e+01
1.002200222015380859e+01
9.194676399230957031e+00
8.237159729003906250e+00
7.196012973785400391e+00
6.119914054870605469e+00
5.056382656097412109e+00
4.048238754272460938e+00
3.130027770996093750e+00
